##NAMES=Strontianite
##RRUFFID=R050476
##IDEAL CHEMISTRY=Sr(CO_3_)
##LOCALITY=Fidalgo Island, Puget Sound, Washington, USA
##OWNER=RRUFF
##SOURCE=California Institute of Technology
##DESCRIPTION=Aggregate of colorless spheres
##STATUS=The identification of this mineral has been confirmed by X-ray diffraction and chemical analysis
##URL=https://www.rruff.net/odr/rruff_sample/R050476
##MEASURED CHEMISTRY=(Sr_0.86_Ca_0.14_)CO_3_
##DIFFRACTION SAMPLE DESCRIPTION=Powder
##CELL PARAMETERS=a: 5.0803 b: 8.362 c: 5.9863 alpha: 90 beta: 90 gamma: 90 volume: 254.32 crystal system: orthorhombic
##FILETYPE=RAW Powder Diffraction Profile

5, 34
5.01, 26
5.02, 30
5.03, 25
5.04, 34
5.05, 33
5.06, 23
5.07, 39
5.08, 27
5.09, 23
5.1, 24
5.11, 32
5.12, 32
5.13, 22
5.14, 27
5.15, 24
5.16, 24
5.17, 27
5.18, 31
5.19, 23
5.2, 37
5.21, 37
5.22, 25
5.23, 28
5.24, 26
5.25, 27
5.26, 16
5.27, 28
5.28, 29
5.29, 20
5.3, 20
5.31, 29
5.32, 28
5.33, 27
5.34, 31
5.35, 28
5.36, 29
5.37, 29
5.38, 31
5.39, 24
5.4, 30
5.41, 38
5.42, 24
5.43, 25
5.44, 38
5.45, 39
5.46, 25
5.47, 24
5.48, 27
5.49, 29
5.5, 33
5.51, 18
5.52, 26
5.53, 18
5.54, 20
5.55, 31
5.56, 27
5.57, 35
5.58, 33
5.59, 25
5.6, 32
5.61, 29
5.62, 23
5.63, 33
5.64, 27
5.65, 25
5.66, 22
5.67, 21
5.68, 40
5.69, 30
5.7, 27
5.71, 25
5.72, 32
5.73, 24
5.74, 23
5.75, 24
5.76, 20
5.77, 28
5.78, 29
5.79, 21
5.8, 32
5.81, 25
5.82, 19
5.83, 33
5.84, 35
5.85, 28
5.86, 15
5.87, 15
5.88, 22
5.89, 22
5.9, 27
5.91, 23
5.92, 21
5.93, 32
5.94, 25
5.95, 31
5.96, 19
5.97, 32
5.98, 32
5.99, 27
6, 17
6.01, 26
6.02, 26
6.03, 29
6.04, 29
6.05, 22
6.06, 17
6.07, 21
6.08, 25
6.09, 28
6.1, 22
6.11, 30
6.12, 23
6.13, 25
6.14, 17
6.15, 24
6.16, 20
6.17, 21
6.18, 25
6.19, 27
6.2, 22
6.21, 25
6.22, 26
6.23, 26
6.24, 20
6.25, 20
6.26, 22
6.27, 26
6.28, 27
6.29, 18
6.3, 19
6.31, 21
6.32, 21
6.33, 19
6.34, 15
6.35, 20
6.36, 26
6.37, 25
6.38, 32
6.39, 14
6.4, 25
6.41, 15
6.42, 23
6.43, 17
6.44, 16
6.45, 18
6.46, 28
6.47, 18
6.48, 21
6.49, 12
6.5, 26
6.51, 16
6.52, 19
6.53, 20
6.54, 18
6.55, 18
6.56, 21
6.57, 16
6.58, 19
6.59, 20
6.6, 20
6.61, 12
6.62, 21
6.63, 18
6.64, 15
6.65, 20
6.66, 18
6.67, 18
6.68, 18
6.69, 16
6.7, 14
6.71, 7
6.72, 19
6.73, 19
6.74, 23
6.75, 17
6.76, 7
6.77, 17
6.78, 25
6.79, 14
6.8, 10
6.81, 19
6.82, 19
6.83, 21
6.84, 20
6.85, 16
6.86, 21
6.87, 19
6.88, 12
6.89, 17
6.9, 11
6.91, 14
6.92, 14
6.93, 15
6.94, 18
6.95, 21
6.96, 24
6.97, 16
6.98, 21
6.99, 22
7, 15
7.01, 20
7.02, 15
7.03, 20
7.04, 16
7.05, 14
7.06, 10
7.07, 19
7.08, 14
7.09, 13
7.1, 12
7.11, 13
7.12, 13
7.13, 13
7.14, 24
7.15, 18
7.16, 11
7.17, 21
7.18, 9
7.19, 12
7.2, 16
7.21, 18
7.22, 10
7.23, 16
7.24, 16
7.25, 8
7.26, 18
7.27, 12
7.28, 12
7.29, 11
7.3, 24
7.31, 21
7.32, 19
7.33, 10
7.34, 19
7.35, 16
7.36, 21
7.37, 12
7.38, 15
7.39, 12
7.4, 21
7.41, 11
7.42, 20
7.43, 12
7.44, 20
7.45, 17
7.46, 13
7.47, 16
7.48, 14
7.49, 15
7.5, 12
7.51, 21
7.52, 17
7.53, 11
7.54, 14
7.55, 14
7.56, 18
7.57, 13
7.58, 9
7.59, 26
7.6, 17
7.61, 13
7.62, 18
7.63, 15
7.64, 17
7.65, 12
7.66, 12
7.67, 13
7.68, 15
7.69, 11
7.7, 18
7.71, 15
7.72, 11
7.73, 18
7.74, 14
7.75, 17
7.76, 15
7.77, 10
7.78, 18
7.79, 13
7.8, 18
7.81, 23
7.82, 11
7.83, 12
7.84, 22
7.85, 16
7.86, 15
7.87, 6
7.88, 15
7.89, 10
7.9, 15
7.91, 15
7.92, 14
7.93, 11
7.94, 16
7.95, 18
7.96, 16
7.97, 18
7.98, 14
7.99, 14
8, 19
8.01, 13
8.02, 7
8.03, 19
8.04, 19
8.05, 14
8.06, 13
8.07, 19
8.08, 11
8.09, 16
8.1, 18
8.11, 16
8.12, 14
8.13, 12
8.14, 14
8.15, 17
8.16, 16
8.17, 11
8.18, 14
8.19, 8
8.2, 15
8.21, 8
8.22, 7
8.23, 14
8.24, 10
8.25, 13
8.26, 14
8.27, 11
8.28, 12
8.29, 10
8.3, 12
8.31, 14
8.32, 12
8.33, 13
8.34, 16
8.35, 19
8.36, 12
8.37, 15
8.38, 7
8.39, 6
8.4, 11
8.41, 14
8.42, 9
8.43, 14
8.44, 9
8.45, 9
8.46, 15
8.47, 8
8.48, 10
8.49, 15
8.5, 22
8.51, 12
8.52, 10
8.53, 13
8.54, 10
8.55, 4
8.56, 10
8.57, 7
8.58, 14
8.59, 8
8.6, 9
8.61, 16
8.62, 10
8.63, 21
8.64, 6
8.65, 12
8.66, 8
8.67, 11
8.68, 10
8.69, 13
8.7, 10
8.71, 10
8.72, 7
8.73, 12
8.74, 13
8.75, 9
8.76, 9
8.77, 16
8.78, 7
8.79, 9
8.8, 12
8.81, 8
8.82, 9
8.83, 19
8.84, 11
8.85, 16
8.86, 15
8.87, 7
8.88, 8
8.89, 10
8.9, 15
8.91, 9
8.92, 6
8.93, 21
8.94, 11
8.95, 17
8.96, 4
8.97, 8
8.98, 12
8.99, 11
9, 8
9.01, 13
9.02, 16
9.03, 6
9.04, 17
9.05, 4
9.06, 8
9.07, 5
9.08, 9
9.09, 10
9.1, 14
9.11, 8
9.12, 13
9.13, 5
9.14, 17
9.15, 16
9.16, 7
9.17, 11
9.18, 10
9.19, 11
9.2, 11
9.21, 12
9.22, 14
9.23, 14
9.24, 13
9.25, 11
9.26, 7
9.27, 8
9.28, 14
9.29, 12
9.3, 9
9.31, 16
9.32, 8
9.33, 8
9.34, 9
9.35, 14
9.36, 8
9.37, 13
9.38, 11
9.39, 20
9.4, 8
9.41, 10
9.42, 9
9.43, 12
9.44, 23
9.45, 6
9.46, 10
9.47, 9
9.48, 18
9.49, 9
9.5, 9
9.51, 5
9.52, 13
9.53, 9
9.54, 16
9.55, 20
9.56, 16
9.57, 8
9.58, 4
9.59, 10
9.6, 17
9.61, 10
9.62, 12
9.63, 13
9.64, 17
9.65, 12
9.66, 10
9.67, 11
9.68, 12
9.69, 7
9.7, 7
9.71, 11
9.72, 12
9.73, 15
9.74, 13
9.75, 11
9.76, 7
9.77, 6
9.78, 12
9.79, 13
9.8, 9
9.81, 10
9.82, 7
9.83, 12
9.84, 16
9.85, 15
9.86, 13
9.87, 13
9.88, 16
9.89, 16
9.9, 12
9.91, 11
9.92, 15
9.93, 14
9.94, 9
9.95, 12
9.96, 12
9.97, 15
9.98, 11
9.99, 14
10, 9
10.01, 10
10.02, 11
10.03, 13
10.04, 12
10.05, 15
10.06, 13
10.07, 14
10.08, 16
10.09, 13
10.1, 11
10.11, 11
10.12, 11
10.13, 18
10.14, 19
10.15, 10
10.16, 14
10.17, 10
10.18, 11
10.19, 9
10.2, 12
10.21, 8
10.22, 15
10.23, 11
10.24, 12
10.25, 15
10.26, 15
10.27, 12
10.28, 10
10.29, 13
10.3, 10
10.31, 9
10.32, 9
10.33, 11
10.34, 19
10.35, 13
10.36, 11
10.37, 11
10.38, 13
10.39, 14
10.4, 13
10.41, 13
10.42, 16
10.43, 9
10.44, 15
10.45, 10
10.46, 12
10.47, 15
10.48, 7
10.49, 8
10.5, 12
10.51, 11
10.52, 14
10.53, 14
10.54, 8
10.55, 19
10.56, 8
10.57, 14
10.58, 12
10.59, 13
10.6, 14
10.61, 14
10.62, 11
10.63, 4
10.64, 10
10.65, 12
10.66, 15
10.67, 13
10.68, 9
10.69, 8
10.7, 11
10.71, 10
10.72, 10
10.73, 13
10.74, 13
10.75, 13
10.76, 9
10.77, 15
10.78, 9
10.79, 10
10.8, 15
10.81, 11
10.82, 13
10.83, 10
10.84, 12
10.85, 7
10.86, 10
10.87, 8
10.88, 9
10.89, 6
10.9, 13
10.91, 14
10.92, 12
10.93, 12
10.94, 9
10.95, 13
10.96, 8
10.97, 9
10.98, 9
10.99, 6
11, 4
11.01, 9
11.02, 13
11.03, 12
11.04, 19
11.05, 12
11.06, 9
11.07, 3
11.08, 9
11.09, 7
11.1, 7
11.11, 15
11.12, 6
11.13, 12
11.14, 13
11.15, 9
11.16, 9
11.17, 13
11.18, 12
11.19, 10
11.2, 9
11.21, 9
11.22, 11
11.23, 14
11.24, 11
11.25, 11
11.26, 13
11.27, 13
11.28, 13
11.29, 10
11.3, 10
11.31, 8
11.32, 8
11.33, 10
11.34, 12
11.35, 12
11.36, 11
11.37, 10
11.38, 9
11.39, 7
11.4, 11
11.41, 9
11.42, 6
11.43, 10
11.44, 9
11.45, 12
11.46, 9
11.47, 10
11.48, 11
11.49, 12
11.5, 6
11.51, 5
11.52, 7
11.53, 6
11.54, 6
11.55, 10
11.56, 9
11.57, 6
11.58, 11
11.59, 14
11.6, 13
11.61, 4
11.62, 9
11.63, 15
11.64, 8
11.65, 8
11.66, 9
11.67, 4
11.68, 10
11.69, 7
11.7, 5
11.71, 11
11.72, 9
11.73, 4
11.74, 12
11.75, 6
11.76, 9
11.77, 9
11.78, 11
11.79, 14
11.8, 7
11.81, 4
11.82, 6
11.83, 10
11.84, 12
11.85, 6
11.86, 6
11.87, 4
11.88, 10
11.89, 7
11.9, 13
11.91, 6
11.92, 11
11.93, 6
11.94, 12
11.95, 4
11.96, 9
11.97, 12
11.98, 10
11.99, 5
12, 4
12.01, 9
12.02, 10
12.03, 8
12.04, 5
12.05, 13
12.06, 9
12.07, 11
12.08, 6
12.09, 7
12.1, 7
12.11, 10
12.12, 12
12.13, 4
12.14, 9
12.15, 8
12.16, 10
12.17, 11
12.18, 6
12.19, 11
12.2, 14
12.21, 9
12.22, 13
12.23, 9
12.24, 9
12.25, 7
12.26, 9
12.27, 9
12.28, 9
12.29, 9
12.3, 7
12.31, 16
12.32, 12
12.33, 9
12.34, 8
12.35, 11
12.36, 10
12.37, 9
12.38, 11
12.39, 9
12.4, 9
12.41, 9
12.42, 7
12.43, 5
12.44, 9
12.45, 5
12.46, 7
12.47, 3
12.48, 7
12.49, 11
12.5, 8
12.51, 7
12.52, 7
12.53, 8
12.54, 6
12.55, 10
12.56, 8
12.57, 7
12.58, 13
12.59, 7
12.6, 5
12.61, 8
12.62, 9
12.63, 6
12.64, 10
12.65, 7
12.66, 3
12.67, 11
12.68, 12
12.69, 13
12.7, 7
12.71, 12
12.72, 8
12.73, 5
12.74, 11
12.75, 13
12.76, 6
12.77, 6
12.78, 10
12.79, 12
12.8, 11
12.81, 4
12.82, 5
12.83, 14
12.84, 7
12.85, 4
12.86, 7
12.87, 17
12.88, 9
12.89, 7
12.9, 10
12.91, 8
12.92, 10
12.93, 15
12.94, 6
12.95, 13
12.96, 9
12.97, 9
12.98, 6
12.99, 11
13, 13
13.01, 8
13.02, 6
13.03, 7
13.04, 7
13.05, 9
13.06, 6
13.07, 4
13.08, 3
13.09, 13
13.1, 15
13.11, 10
13.12, 13
13.13, 13
13.14, 14
13.15, 7
13.16, 5
13.17, 9
13.18, 7
13.19, 7
13.2, 5
13.21, 8
13.22, 8
13.23, 11
13.24, 4
13.25, 13
13.26, 11
13.27, 3
13.28, 6
13.29, 7
13.3, 5
13.31, 11
13.32, 7
13.33, 9
13.34, 8
13.35, 10
13.36, 6
13.37, 8
13.38, 9
13.39, 9
13.4, 6
13.41, 10
13.42, 8
13.43, 7
13.44, 6
13.45, 9
13.46, 5
13.47, 8
13.48, 9
13.49, 12
13.5, 7
13.51, 7
13.52, 12
13.53, 8
13.54, 13
13.55, 3
13.56, 7
13.57, 7
13.58, 8
13.59, 8
13.6, 6
13.61, 14
13.62, 11
13.63, 7
13.64, 5
13.65, 7
13.66, 11
13.67, 9
13.68, 7
13.69, 7
13.7, 6
13.71, 16
13.72, 8
13.73, 10
13.74, 7
13.75, 9
13.76, 6
13.77, 13
13.78, 11
13.79, 9
13.8, 6
13.81, 10
13.82, 6
13.83, 16
13.84, 7
13.85, 6
13.86, 8
13.87, 7
13.88, 10
13.89, 9
13.9, 12
13.91, 4
13.92, 3
13.93, 7
13.94, 8
13.95, 7
13.96, 7
13.97, 13
13.98, 10
13.99, 10
14, 8
14.01, 7
14.02, 10
14.03, 6
14.04, 4
14.05, 9
14.06, 11
14.07, 15
14.08, 7
14.09, 8
14.1, 4
14.11, 9
14.12, 8
14.13, 11
14.14, 4
14.15, 3
14.16, 9
14.17, 9
14.18, 7
14.19, 14
14.2, 10
14.21, 10
14.22, 7
14.23, 5
14.24, 3
14.25, 9
14.26, 12
14.27, 9
14.28, 6
14.29, 9
14.3, 8
14.31, 12
14.32, 5
14.33, 5
14.34, 13
14.35, 8
14.36, 12
14.37, 9
14.38, 10
14.39, 16
14.4, 11
14.41, 12
14.42, 7
14.43, 13
14.44, 8
14.45, 8
14.46, 9
14.47, 10
14.48, 9
14.49, 6
14.5, 19
14.51, 10
14.52, 12
14.53, 11
14.54, 7
14.55, 5
14.56, 4
14.57, 6
14.58, 9
14.59, 7
14.6, 7
14.61, 13
14.62, 6
14.63, 10
14.64, 7
14.65, 10
14.66, 6
14.67, 11
14.68, 11
14.69, 12
14.7, 5
14.71, 12
14.72, 6
14.73, 7
14.74, 7
14.75, 7
14.76, 9
14.77, 11
14.78, 13
14.79, 12
14.8, 15
14.81, 10
14.82, 3
14.83, 3
14.84, 13
14.85, 13
14.86, 13
14.87, 9
14.88, 9
14.89, 10
14.9, 6
14.91, 14
14.92, 11
14.93, 4
14.94, 6
14.95, 10
14.96, 9
14.97, 8
14.98, 11
14.99, 4
15, 13
15.01, 7
15.02, 7
15.03, 4
15.04, 10
15.05, 7
15.06, 8
15.07, 8
15.08, 8
15.09, 4
15.1, 10
15.11, 7
15.12, 7
15.13, 10
15.14, 3
15.15, 6
15.16, 9
15.17, 9
15.18, 7
15.19, 9
15.2, 8
15.21, 7
15.22, 10
15.23, 6
15.24, 5
15.25, 14
15.26, 9
15.27, 13
15.28, 6
15.29, 6
15.3, 5
15.31, 5
15.32, 9
15.33, 10
15.34, 9
15.35, 6
15.36, 8
15.37, 6
15.38, 9
15.39, 11
15.4, 11
15.41, 12
15.42, 9
15.43, 9
15.44, 8
15.45, 7
15.46, 17
15.47, 7
15.48, 13
15.49, 5
15.5, 7
15.51, 12
15.52, 10
15.53, 7
15.54, 7
15.55, 5
15.56, 10
15.57, 11
15.58, 7
15.59, 10
15.6, 10
15.61, 7
15.62, 6
15.63, 6
15.64, 7
15.65, 9
15.66, 15
15.67, 7
15.68, 14
15.69, 6
15.7, 6
15.71, 10
15.72, 5
15.73, 8
15.74, 8
15.75, 6
15.76, 8
15.77, 9
15.78, 15
15.79, 9
15.8, 13
15.81, 10
15.82, 5
15.83, 7
15.84, 10
15.85, 8
15.86, 6
15.87, 7
15.88, 6
15.89, 14
15.9, 7
15.91, 5
15.92, 12
15.93, 12
15.94, 9
15.95, 10
15.96, 14
15.97, 7
15.98, 12
15.99, 9
16, 10
16.01, 9
16.02, 9
16.03, 11
16.04, 8
16.05, 6
16.06, 10
16.07, 11
16.08, 12
16.09, 9
16.1, 6
16.11, 8
16.12, 9
16.13, 10
16.14, 7
16.15, 8
16.16, 6
16.17, 8
16.18, 11
16.19, 12
16.2, 10
16.21, 14
16.22, 5
16.23, 10
16.24, 7
16.25, 9
16.26, 8
16.27, 16
16.28, 9
16.29, 17
16.3, 8
16.31, 7
16.32, 9
16.33, 8
16.34, 13
16.35, 5
16.36, 16
16.37, 7
16.38, 13
16.39, 9
16.4, 6
16.41, 8
16.42, 15
16.43, 12
16.44, 8
16.45, 9
16.46, 13
16.47, 9
16.48, 12
16.49, 8
16.5, 8
16.51, 8
16.52, 14
16.53, 15
16.54, 12
16.55, 6
16.56, 16
16.57, 5
16.58, 9
16.59, 5
16.6, 7
16.61, 10
16.62, 14
16.63, 11
16.64, 6
16.65, 7
16.66, 9
16.67, 13
16.68, 10
16.69, 8
16.7, 7
16.71, 11
16.72, 9
16.73, 6
16.74, 6
16.75, 6
16.76, 8
16.77, 7
16.78, 8
16.79, 8
16.8, 6
16.81, 7
16.82, 6
16.83, 7
16.84, 7
16.85, 11
16.86, 9
16.87, 10
16.88, 8
16.89, 10
16.9, 11
16.91, 13
16.92, 12
16.93, 12
16.94, 9
16.95, 9
16.96, 14
16.97, 6
16.98, 6
16.99, 5
17, 9
17.01, 8
17.02, 18
17.03, 12
17.04, 7
17.05, 6
17.06, 9
17.07, 4
17.08, 8
17.09, 7
17.1, 9
17.11, 11
17.12, 13
17.13, 8
17.14, 10
17.15, 15
17.16, 8
17.17, 4
17.18, 7
17.19, 8
17.2, 5
17.21, 11
17.22, 7
17.23, 6
17.24, 12
17.25, 13
17.26, 15
17.27, 7
17.28, 9
17.29, 9
17.3, 3
17.31, 9
17.32, 10
17.33, 13
17.34, 7
17.35, 11
17.36, 8
17.37, 14
17.38, 7
17.39, 7
17.4, 8
17.41, 5
17.42, 9
17.43, 7
17.44, 10
17.45, 9
17.46, 8
17.47, 7
17.48, 7
17.49, 8
17.5, 9
17.51, 6
17.52, 10
17.53, 9
17.54, 16
17.55, 7
17.56, 9
17.57, 9
17.58, 8
17.59, 7
17.6, 8
17.61, 13
17.62, 6
17.63, 11
17.64, 8
17.65, 9
17.66, 8
17.67, 9
17.68, 16
17.69, 10
17.7, 6
17.71, 16
17.72, 9
17.73, 7
17.74, 11
17.75, 10
17.76, 16
17.77, 8
17.78, 12
17.79, 4
17.8, 12
17.81, 11
17.82, 7
17.83, 14
17.84, 13
17.85, 9
17.86, 7
17.87, 8
17.88, 8
17.89, 9
17.9, 6
17.91, 10
17.92, 11
17.93, 12
17.94, 13
17.95, 9
17.96, 15
17.97, 8
17.98, 8
17.99, 12
18, 9
18.01, 12
18.02, 6
18.03, 7
18.04, 10
18.05, 8
18.06, 11
18.07, 8
18.08, 11
18.09, 7
18.1, 4
18.11, 8
18.12, 20
18.13, 10
18.14, 7
18.15, 7
18.16, 11
18.17, 12
18.18, 10
18.19, 10
18.2, 14
18.21, 8
18.22, 10
18.23, 9
18.24, 10
18.25, 10
18.26, 12
18.27, 12
18.28, 11
18.29, 10
18.3, 9
18.31, 7
18.32, 8
18.33, 9
18.34, 8
18.35, 8
18.36, 5
18.37, 10
18.38, 11
18.39, 7
18.4, 10
18.41, 13
18.42, 13
18.43, 4
18.44, 11
18.45, 12
18.46, 10
18.47, 11
18.48, 6
18.49, 4
18.5, 8
18.51, 6
18.52, 9
18.53, 9
18.54, 4
18.55, 15
18.56, 8
18.57, 11
18.58, 6
18.59, 7
18.6, 7
18.61, 11
18.62, 9
18.63, 11
18.64, 8
18.65, 9
18.66, 9
18.67, 7
18.68, 13
18.69, 3
18.7, 5
18.71, 7
18.72, 15
18.73, 11
18.74, 10
18.75, 9
18.76, 9
18.77, 6
18.78, 10
18.79, 10
18.8, 6
18.81, 5
18.82, 11
18.83, 6
18.84, 8
18.85, 10
18.86, 13
18.87, 5
18.88, 9
18.89, 5
18.9, 6
18.91, 11
18.92, 11
18.93, 8
18.94, 11
18.95, 8
18.96, 8
18.97, 7
18.98, 8
18.99, 10
19, 12
19.01, 11
19.02, 13
19.03, 5
19.04, 11
19.05, 6
19.06, 8
19.07, 10
19.08, 9
19.09, 8
19.1, 8
19.11, 17
19.12, 9
19.13, 7
19.14, 9
19.15, 10
19.16, 10
19.17, 7
19.18, 11
19.19, 6
19.2, 14
19.21, 8
19.22, 14
19.23, 11
19.24, 7
19.25, 15
19.26, 15
19.27, 6
19.28, 7
19.29, 10
19.3, 9
19.31, 10
19.32, 7
19.33, 8
19.34, 12
19.35, 8
19.36, 7
19.37, 9
19.38, 9
19.39, 9
19.4, 8
19.41, 13
19.42, 11
19.43, 9
19.44, 13
19.45, 10
19.46, 8
19.47, 11
19.48, 6
19.49, 6
19.5, 8
19.51, 17
19.52, 11
19.53, 19
19.54, 12
19.55, 17
19.56, 13
19.57, 7
19.58, 10
19.59, 10
19.6, 11
19.61, 7
19.62, 9
19.63, 4
19.64, 13
19.65, 8
19.66, 7
19.67, 7
19.68, 8
19.69, 11
19.7, 7
19.71, 10
19.72, 7
19.73, 8
19.74, 5
19.75, 7
19.76, 12
19.77, 10
19.78, 15
19.79, 10
19.8, 8
19.81, 14
19.82, 13
19.83, 5
19.84, 5
19.85, 12
19.86, 10
19.87, 12
19.88, 12
19.89, 9
19.9, 15
19.91, 8
19.92, 13
19.93, 10
19.94, 6
19.95, 7
19.96, 10
19.97, 9
19.98, 11
19.99, 8
20, 13
20.01, 14
20.02, 14
20.03, 4
20.04, 6
20.05, 13
20.06, 7
20.07, 10
20.08, 11
20.09, 14
20.1, 13
20.11, 8
20.12, 10
20.13, 4
20.14, 14
20.15, 8
20.16, 11
20.17, 10
20.18, 11
20.19, 13
20.2, 9
20.21, 9
20.22, 7
20.23, 10
20.24, 10
20.25, 7
20.26, 11
20.27, 11
20.28, 8
20.29, 9
20.3, 12
20.31, 16
20.32, 8
20.33, 12
20.34, 11
20.35, 11
20.36, 20
20.37, 14
20.38, 18
20.39, 17
20.4, 22
20.41, 29
20.42, 35
20.43, 35
20.44, 31
20.45, 35
20.46, 26
20.47, 32
20.48, 34
20.49, 29
20.5, 21
20.51, 27
20.52, 32
20.53, 23
20.54, 21
20.55, 22
20.56, 17
20.57, 13
20.58, 14
20.59, 8
20.6, 15
20.61, 17
20.62, 12
20.63, 6
20.64, 14
20.65, 12
20.66, 5
20.67, 10
20.68, 8
20.69, 12
20.7, 13
20.71, 8
20.72, 12
20.73, 11
20.74, 11
20.75, 10
20.76, 8
20.77, 13
20.78, 8
20.79, 9
20.8, 12
20.81, 13
20.82, 8
20.83, 14
20.84, 9
20.85, 6
20.86, 11
20.87, 6
20.88, 15
20.89, 14
20.9, 13
20.91, 15
20.92, 16
20.93, 13
20.94, 11
20.95, 10
20.96, 17
20.97, 6
20.98, 17
20.99, 12
21, 16
21.01, 7
21.02, 16
21.03, 17
21.04, 12
21.05, 19
21.06, 16
21.07, 12
21.08, 11
21.09, 12
21.1, 20
21.11, 13
21.12, 19
21.13, 12
21.14, 9
21.15, 19
21.16, 13
21.17, 16
21.18, 11
21.19, 15
21.2, 8
21.21, 17
21.22, 16
21.23, 15
21.24, 21
21.25, 19
21.26, 22
21.27, 13
21.28, 13
21.29, 10
21.3, 15
21.31, 10
21.32, 13
21.33, 14
21.34, 18
21.35, 12
21.36, 16
21.37, 16
21.38, 11
21.39, 11
21.4, 11
21.41, 11
21.42, 14
21.43, 13
21.44, 12
21.45, 9
21.46, 8
21.47, 5
21.48, 10
21.49, 12
21.5, 13
21.51, 13
21.52, 14
21.53, 14
21.54, 6
21.55, 14
21.56, 11
21.57, 15
21.58, 7
21.59, 19
21.6, 8
21.61, 8
21.62, 8
21.63, 6
21.64, 11
21.65, 7
21.66, 11
21.67, 12
21.68, 16
21.69, 9
21.7, 6
21.71, 13
21.72, 9
21.73, 16
21.74, 7
21.75, 12
21.76, 6
21.77, 10
21.78, 11
21.79, 16
21.8, 7
21.81, 13
21.82, 11
21.83, 12
21.84, 15
21.85, 7
21.86, 10
21.87, 2
21.88, 9
21.89, 7
21.9, 8
21.91, 3
21.92, 10
21.93, 6
21.94, 9
21.95, 13
21.96, 11
21.97, 10
21.98, 9
21.99, 8
22, 3
22.01, 9
22.02, 6
22.03, 6
22.04, 10
22.05, 12
22.06, 8
22.07, 14
22.08, 11
22.09, 9
22.1, 6
22.11, 9
22.12, 10
22.13, 10
22.14, 8
22.15, 11
22.16, 5
22.17, 13
22.18, 13
22.19, 6
22.2, 16
22.21, 8
22.22, 8
22.23, 10
22.24, 9
22.25, 9
22.26, 5
22.27, 11
22.28, 9
22.29, 11
22.3, 7
22.31, 10
22.32, 14
22.33, 13
22.34, 8
22.35, 12
22.36, 5
22.37, 9
22.38, 10
22.39, 8
22.4, 9
22.41, 5
22.42, 12
22.43, 6
22.44, 8
22.45, 7
22.46, 7
22.47, 6
22.48, 8
22.49, 11
22.5, 14
22.51, 12
22.52, 9
22.53, 11
22.54, 13
22.55, 4
22.56, 5
22.57, 15
22.58, 5
22.59, 6
22.6, 7
22.61, 9
22.62, 8
22.63, 9
22.64, 9
22.65, 13
22.66, 13
22.67, 9
22.68, 15
22.69, 10
22.7, 8
22.71, 12
22.72, 12
22.73, 15
22.74, 14
22.75, 12
22.76, 16
22.77, 16
22.78, 12
22.79, 13
22.8, 12
22.81, 17
22.82, 17
22.83, 12
22.84, 19
22.85, 34
22.86, 22
22.87, 22
22.88, 21
22.89, 15
22.9, 18
22.91, 15
22.92, 9
22.93, 15
22.94, 13
22.95, 14
22.96, 9
22.97, 18
22.98, 10
22.99, 15
23, 11
23.01, 11
23.02, 16
23.03, 13
23.04, 16
23.05, 13
23.06, 8
23.07, 7
23.08, 9
23.09, 10
23.1, 9
23.11, 10
23.12, 12
23.13, 14
23.14, 9
23.15, 13
23.16, 8
23.17, 16
23.18, 9
23.19, 16
23.2, 6
23.21, 13
23.22, 9
23.23, 7
23.24, 9
23.25, 9
23.26, 18
23.27, 9
23.28, 11
23.29, 5
23.3, 10
23.31, 15
23.32, 9
23.33, 9
23.34, 10
23.35, 18
23.36, 9
23.37, 11
23.38, 11
23.39, 14
23.4, 13
23.41, 13
23.42, 3
23.43, 11
23.44, 14
23.45, 13
23.46, 16
23.47, 18
23.48, 10
23.49, 14
23.5, 11
23.51, 15
23.52, 11
23.53, 14
23.54, 16
23.55, 13
23.56, 14
23.57, 10
23.58, 11
23.59, 12
23.6, 11
23.61, 7
23.62, 11
23.63, 10
23.64, 14
23.65, 4
23.66, 11
23.67, 8
23.68, 6
23.69, 6
23.7, 16
23.71, 7
23.72, 10
23.73, 9
23.74, 10
23.75, 7
23.76, 9
23.77, 11
23.78, 12
23.79, 9
23.8, 13
23.81, 10
23.82, 8
23.83, 12
23.84, 11
23.85, 10
23.86, 11
23.87, 6
23.88, 11
23.89, 12
23.9, 9
23.91, 7
23.92, 9
23.93, 13
23.94, 8
23.95, 9
23.96, 7
23.97, 9
23.98, 13
23.99, 15
24, 7
24.01, 17
24.02, 12
24.03, 6
24.04, 10
24.05, 13
24.06, 9
24.07, 17
24.08, 9
24.09, 12
24.1, 11
24.11, 14
24.12, 12
24.13, 13
24.14, 6
24.15, 9
24.16, 3
24.17, 8
24.18, 11
24.19, 9
24.2, 9
24.21, 14
24.22, 14
24.23, 13
24.24, 12
24.25, 12
24.26, 18
24.27, 8
24.28, 8
24.29, 14
24.3, 18
24.31, 13
24.32, 7
24.33, 12
24.34, 8
24.35, 12
24.36, 9
24.37, 13
24.38, 13
24.39, 8
24.4, 12
24.41, 11
24.42, 19
24.43, 10
24.44, 18
24.45, 18
24.46, 7
24.47, 16
24.48, 14
24.49, 18
24.5, 15
24.51, 17
24.52, 18
24.53, 17
24.54, 11
24.55, 18
24.56, 12
24.57, 17
24.58, 14
24.59, 17
24.6, 15
24.61, 26
24.62, 12
24.63, 17
24.64, 14
24.65, 16
24.66, 11
24.67, 17
24.68, 17
24.69, 10
24.7, 18
24.71, 20
24.72, 21
24.73, 16
24.74, 18
24.75, 20
24.76, 13
24.77, 16
24.78, 15
24.79, 18
24.8, 25
24.81, 17
24.82, 19
24.83, 15
24.84, 15
24.85, 17
24.86, 19
24.87, 22
24.88, 16
24.89, 21
24.9, 25
24.91, 23
24.92, 31
24.93, 21
24.94, 24
24.95, 25
24.96, 26
24.97, 20
24.98, 23
24.99, 33
25, 20
25.01, 34
25.02, 28
25.03, 45
25.04, 42
25.05, 43
25.06, 41
25.07, 52
25.08, 47
25.09, 52
25.1, 53
25.11, 57
25.12, 58
25.13, 63
25.14, 70
25.15, 57
25.16, 84
25.17, 91
25.18, 103
25.19, 97
25.2, 113
25.21, 164
25.22, 169
25.23, 218
25.24, 246
25.25, 242
25.26, 309
25.27, 359
25.28, 403
25.29, 503
25.3, 556
25.31, 600
25.32, 630
25.33, 650
25.34, 623
25.35, 621
25.36, 639
25.37, 615
25.38, 577
25.39, 511
25.4, 480
25.41, 450
25.42, 383
25.43, 374
25.44, 314
25.45, 275
25.46, 252
25.47, 201
25.48, 202
25.49, 143
25.5, 135
25.51, 123
25.52, 139
25.53, 129
25.54, 101
25.55, 97
25.56, 107
25.57, 69
25.58, 88
25.59, 85
25.6, 58
25.61, 56
25.62, 59
25.63, 67
25.64, 57
25.65, 63
25.66, 60
25.67, 65
25.68, 70
25.69, 57
25.7, 58
25.71, 71
25.72, 55
25.73, 63
25.74, 49
25.75, 69
25.76, 61
25.77, 72
25.78, 63
25.79, 60
25.8, 86
25.81, 99
25.82, 91
25.83, 97
25.84, 112
25.85, 134
25.86, 120
25.87, 133
25.88, 149
25.89, 157
25.9, 184
25.91, 203
25.92, 206
25.93, 205
25.94, 232
25.95, 227
25.96, 278
25.97, 235
25.98, 235
25.99, 214
26, 257
26.01, 274
26.02, 205
26.03, 246
26.04, 219
26.05, 226
26.06, 211
26.07, 177
26.08, 172
26.09, 150
26.1, 161
26.11, 153
26.12, 137
26.13, 131
26.14, 99
26.15, 101
26.16, 83
26.17, 87
26.18, 73
26.19, 69
26.2, 67
26.21, 68
26.22, 57
26.23, 51
26.24, 36
26.25, 42
26.26, 45
26.27, 38
26.28, 52
26.29, 25
26.3, 33
26.31, 35
26.32, 33
26.33, 30
26.34, 24
26.35, 31
26.36, 32
26.37, 21
26.38, 25
26.39, 19
26.4, 22
26.41, 21
26.42, 18
26.43, 26
26.44, 16
26.45, 14
26.46, 20
26.47, 20
26.48, 21
26.49, 19
26.5, 15
26.51, 17
26.52, 11
26.53, 20
26.54, 15
26.55, 10
26.56, 13
26.57, 16
26.58, 20
26.59, 15
26.6, 16
26.61, 8
26.62, 10
26.63, 24
26.64, 12
26.65, 24
26.66, 24
26.67, 10
26.68, 23
26.69, 12
26.7, 14
26.71, 10
26.72, 13
26.73, 14
26.74, 10
26.75, 13
26.76, 14
26.77, 15
26.78, 12
26.79, 18
26.8, 14
26.81, 3
26.82, 18
26.83, 19
26.84, 19
26.85, 11
26.86, 17
26.87, 15
26.88, 11
26.89, 14
26.9, 17
26.91, 20
26.92, 12
26.93, 17
26.94, 16
26.95, 14
26.96, 11
26.97, 15
26.98, 23
26.99, 20
27, 16
27.01, 16
27.02, 7
27.03, 15
27.04, 8
27.05, 15
27.06, 18
27.07, 10
27.08, 16
27.09, 15
27.1, 10
27.11, 13
27.12, 13
27.13, 15
27.14, 21
27.15, 11
27.16, 16
27.17, 16
27.18, 10
27.19, 18
27.2, 15
27.21, 10
27.22, 21
27.23, 14
27.24, 14
27.25, 11
27.26, 15
27.27, 15
27.28, 19
27.29, 16
27.3, 14
27.31, 18
27.32, 16
27.33, 11
27.34, 16
27.35, 8
27.36, 16
27.37, 11
27.38, 20
27.39, 15
27.4, 12
27.41, 14
27.42, 9
27.43, 18
27.44, 16
27.45, 13
27.46, 11
27.47, 10
27.48, 10
27.49, 7
27.5, 12
27.51, 13
27.52, 20
27.53, 9
27.54, 12
27.55, 13
27.56, 13
27.57, 12
27.58, 13
27.59, 19
27.6, 11
27.61, 8
27.62, 11
27.63, 11
27.64, 13
27.65, 17
27.66, 16
27.67, 9
27.68, 13
27.69, 18
27.7, 11
27.71, 13
27.72, 11
27.73, 10
27.74, 12
27.75, 13
27.76, 15
27.77, 12
27.78, 7
27.79, 8
27.8, 4
27.81, 10
27.82, 13
27.83, 10
27.84, 20
27.85, 9
27.86, 6
27.87, 16
27.88, 12
27.89, 13
27.9, 8
27.91, 8
27.92, 11
27.93, 10
27.94, 14
27.95, 11
27.96, 19
27.97, 11
27.98, 10
27.99, 11
28, 15
28.01, 12
28.02, 13
28.03, 18
28.04, 9
28.05, 17
28.06, 10
28.07, 11
28.08, 8
28.09, 13
28.1, 15
28.11, 16
28.12, 14
28.13, 7
28.14, 11
28.15, 10
28.16, 13
28.17, 20
28.18, 18
28.19, 14
28.2, 9
28.21, 16
28.22, 13
28.23, 8
28.24, 18
28.25, 14
28.26, 12
28.27, 10
28.28, 17
28.29, 6
28.3, 13
28.31, 9
28.32, 18
28.33, 19
28.34, 10
28.35, 7
28.36, 11
28.37, 19
28.38, 10
28.39, 14
28.4, 16
28.41, 9
28.42, 11
28.43, 11
28.44, 11
28.45, 14
28.46, 17
28.47, 8
28.48, 11
28.49, 18
28.5, 15
28.51, 16
28.52, 15
28.53, 13
28.54, 13
28.55, 14
28.56, 24
28.57, 15
28.58, 14
28.59, 25
28.6, 20
28.61, 16
28.62, 15
28.63, 13
28.64, 9
28.65, 11
28.66, 20
28.67, 13
28.68, 24
28.69, 12
28.7, 10
28.71, 15
28.72, 14
28.73, 18
28.74, 13
28.75, 12
28.76, 15
28.77, 21
28.78, 14
28.79, 16
28.8, 14
28.81, 11
28.82, 11
28.83, 15
28.84, 16
28.85, 11
28.86, 9
28.87, 21
28.88, 16
28.89, 21
28.9, 11
28.91, 15
28.92, 12
28.93, 10
28.94, 11
28.95, 12
28.96, 13
28.97, 22
28.98, 11
28.99, 12
29, 12
29.01, 12
29.02, 12
29.03, 11
29.04, 12
29.05, 14
29.06, 7
29.07, 8
29.08, 22
29.09, 11
29.1, 10
29.11, 15
29.12, 18
29.13, 12
29.14, 12
29.15, 17
29.16, 9
29.17, 17
29.18, 15
29.19, 9
29.2, 24
29.21, 15
29.22, 15
29.23, 9
29.24, 11
29.25, 14
29.26, 16
29.27, 9
29.28, 13
29.29, 17
29.3, 10
29.31, 13
29.32, 17
29.33, 14
29.34, 12
29.35, 14
29.36, 13
29.37, 12
29.38, 12
29.39, 9
29.4, 10
29.41, 10
29.42, 8
29.43, 18
29.44, 10
29.45, 14
29.46, 10
29.47, 11
29.48, 15
29.49, 13
29.5, 17
29.51, 9
29.52, 14
29.53, 12
29.54, 23
29.55, 12
29.56, 21
29.57, 13
29.58, 13
29.59, 13
29.6, 18
29.61, 17
29.62, 20
29.63, 18
29.64, 17
29.65, 27
29.66, 20
29.67, 24
29.68, 17
29.69, 28
29.7, 33
29.71, 36
29.72, 46
29.73, 47
29.74, 58
29.75, 54
29.76, 71
29.77, 76
29.78, 61
29.79, 85
29.8, 83
29.81, 74
29.82, 76
29.83, 84
29.84, 71
29.85, 78
29.86, 66
29.87, 70
29.88, 48
29.89, 51
29.9, 52
29.91, 57
29.92, 41
29.93, 35
29.94, 30
29.95, 38
29.96, 25
29.97, 30
29.98, 25
29.99, 23
30, 24
30.01, 20
30.02, 26
30.03, 28
30.04, 22
30.05, 23
30.06, 20
30.07, 22
30.08, 19
30.09, 14
30.1, 19
30.11, 18
30.12, 22
30.13, 20
30.14, 27
30.15, 22
30.16, 11
30.17, 11
30.18, 14
30.19, 18
30.2, 15
30.21, 9
30.22, 8
30.23, 11
30.24, 17
30.25, 17
30.26, 7
30.27, 8
30.28, 15
30.29, 9
30.3, 9
30.31, 12
30.32, 15
30.33, 10
30.34, 11
30.35, 14
30.36, 14
30.37, 15
30.38, 20
30.39, 10
30.4, 8
30.41, 10
30.42, 14
30.43, 11
30.44, 8
30.45, 13
30.46, 15
30.47, 19
30.48, 15
30.49, 13
30.5, 16
30.51, 9
30.52, 13
30.53, 16
30.54, 10
30.55, 14
30.56, 14
30.57, 17
30.58, 12
30.59, 14
30.6, 10
30.61, 17
30.62, 17
30.63, 11
30.64, 7
30.65, 16
30.66, 8
30.67, 13
30.68, 10
30.69, 13
30.7, 7
30.71, 15
30.72, 19
30.73, 19
30.74, 13
30.75, 14
30.76, 17
30.77, 11
30.78, 11
30.79, 8
30.8, 11
30.81, 12
30.82, 14
30.83, 15
30.84, 6
30.85, 9
30.86, 12
30.87, 9
30.88, 6
30.89, 6
30.9, 17
30.91, 11
30.92, 11
30.93, 12
30.94, 14
30.95, 20
30.96, 10
30.97, 16
30.98, 8
30.99, 16
31, 6
31.01, 9
31.02, 21
31.03, 8
31.04, 9
31.05, 12
31.06, 18
31.07, 8
31.08, 17
31.09, 14
31.1, 13
31.11, 12
31.12, 10
31.13, 23
31.14, 14
31.15, 13
31.16, 21
31.17, 19
31.18, 9
31.19, 19
31.2, 17
31.21, 17
31.22, 26
31.23, 21
31.24, 12
31.25, 18
31.26, 13
31.27, 18
31.28, 20
31.29, 14
31.3, 16
31.31, 19
31.32, 22
31.33, 17
31.34, 21
31.35, 21
31.36, 20
31.37, 20
31.38, 17
31.39, 15
31.4, 20
31.41, 18
31.42, 17
31.43, 17
31.44, 20
31.45, 22
31.46, 31
31.47, 23
31.48, 24
31.49, 33
31.5, 43
31.51, 27
31.52, 33
31.53, 26
31.54, 35
31.55, 26
31.56, 25
31.57, 39
31.58, 29
31.59, 45
31.6, 46
31.61, 48
31.62, 43
31.63, 43
31.64, 47
31.65, 39
31.66, 51
31.67, 52
31.68, 42
31.69, 54
31.7, 59
31.71, 60
31.72, 52
31.73, 60
31.74, 57
31.75, 56
31.76, 61
31.77, 70
31.78, 67
31.79, 72
31.8, 58
31.81, 74
31.82, 52
31.83, 62
31.84, 60
31.85, 50
31.86, 47
31.87, 38
31.88, 40
31.89, 42
31.9, 34
31.91, 35
31.92, 35
31.93, 36
31.94, 32
31.95, 36
31.96, 21
31.97, 25
31.98, 27
31.99, 27
32, 20
32.01, 29
32.02, 17
32.03, 23
32.04, 23
32.05, 18
32.06, 23
32.07, 16
32.08, 29
32.09, 21
32.1, 17
32.11, 17
32.12, 20
32.13, 16
32.14, 18
32.15, 13
32.16, 26
32.17, 26
32.18, 25
32.19, 18
32.2, 21
32.21, 14
32.22, 27
32.23, 15
32.24, 25
32.25, 11
32.26, 14
32.27, 23
32.28, 17
32.29, 16
32.3, 7
32.31, 21
32.32, 10
32.33, 22
32.34, 11
32.35, 11
32.36, 12
32.37, 18
32.38, 15
32.39, 19
32.4, 11
32.41, 10
32.42, 12
32.43, 13
32.44, 13
32.45, 11
32.46, 16
32.47, 13
32.48, 14
32.49, 12
32.5, 10
32.51, 20
32.52, 18
32.53, 11
32.54, 15
32.55, 9
32.56, 10
32.57, 12
32.58, 10
32.59, 13
32.6, 12
32.61, 15
32.62, 21
32.63, 12
32.64, 6
32.65, 9
32.66, 12
32.67, 14
32.68, 17
32.69, 12
32.7, 14
32.71, 14
32.72, 14
32.73, 14
32.74, 22
32.75, 17
32.76, 13
32.77, 18
32.78, 11
32.79, 15
32.8, 19
32.81, 11
32.82, 13
32.83, 14
32.84, 19
32.85, 11
32.86, 17
32.87, 17
32.88, 14
32.89, 14
32.9, 11
32.91, 12
32.92, 16
32.93, 11
32.94, 7
32.95, 11
32.96, 14
32.97, 16
32.98, 15
32.99, 16
33, 15
33.01, 22
33.02, 11
33.03, 14
33.04, 17
33.05, 11
33.06, 18
33.07, 9
33.08, 12
33.09, 10
33.1, 17
33.11, 13
33.12, 16
33.13, 11
33.14, 10
33.15, 7
33.16, 9
33.17, 12
33.18, 14
33.19, 16
33.2, 10
33.21, 11
33.22, 9
33.23, 13
33.24, 19
33.25, 13
33.26, 12
33.27, 10
33.28, 10
33.29, 5
33.3, 8
33.31, 8
33.32, 11
33.33, 12
33.34, 8
33.35, 9
33.36, 15
33.37, 19
33.38, 19
33.39, 12
33.4, 12
33.41, 13
33.42, 17
33.43, 10
33.44, 8
33.45, 11
33.46, 10
33.47, 13
33.48, 11
33.49, 14
33.5, 11
33.51, 9
33.52, 17
33.53, 10
33.54, 11
33.55, 11
33.56, 10
33.57, 13
33.58, 17
33.59, 10
33.6, 20
33.61, 14
33.62, 13
33.63, 11
33.64, 11
33.65, 15
33.66, 13
33.67, 15
33.68, 15
33.69, 17
33.7, 8
33.71, 10
33.72, 14
33.73, 12
33.74, 12
33.75, 15
33.76, 11
33.77, 6
33.78, 12
33.79, 13
33.8, 12
33.81, 16
33.82, 15
33.83, 12
33.84, 11
33.85, 14
33.86, 10
33.87, 13
33.88, 17
33.89, 9
33.9, 13
33.91, 12
33.92, 18
33.93, 9
33.94, 14
33.95, 8
33.96, 11
33.97, 15
33.98, 10
33.99, 17
34, 9
34.01, 16
34.02, 11
34.03, 7
34.04, 10
34.05, 18
34.06, 9
34.07, 15
34.08, 11
34.09, 15
34.1, 14
34.11, 8
34.12, 6
34.13, 11
34.14, 11
34.15, 7
34.16, 14
34.17, 9
34.18, 14
34.19, 8
34.2, 12
34.21, 19
34.22, 12
34.23, 17
34.24, 11
34.25, 12
34.26, 20
34.27, 11
34.28, 17
34.29, 14
34.3, 20
34.31, 16
34.32, 16
34.33, 20
34.34, 13
34.35, 13
34.36, 19
34.37, 14
34.38, 20
34.39, 14
34.4, 11
34.41, 16
34.42, 20
34.43, 13
34.44, 8
34.45, 16
34.46, 14
34.47, 13
34.48, 17
34.49, 20
34.5, 20
34.51, 14
34.52, 24
34.53, 32
34.54, 21
34.55, 22
34.56, 28
34.57, 20
34.58, 25
34.59, 25
34.6, 19
34.61, 21
34.62, 28
34.63, 27
34.64, 26
34.65, 31
34.66, 30
34.67, 28
34.68, 31
34.69, 45
34.7, 37
34.71, 26
34.72, 40
34.73, 36
34.74, 41
34.75, 43
34.76, 27
34.77, 29
34.78, 27
34.79, 37
34.8, 40
34.81, 39
34.82, 37
34.83, 31
34.84, 32
34.85, 34
34.86, 34
34.87, 34
34.88, 31
34.89, 29
34.9, 28
34.91, 28
34.92, 25
34.93, 29
34.94, 27
34.95, 31
34.96, 26
34.97, 24
34.98, 21
34.99, 32
35, 23
35.01, 14
35.02, 19
35.03, 25
35.04, 25
35.05, 31
35.06, 31
35.07, 23
35.08, 22
35.09, 18
35.1, 29
35.11, 25
35.12, 23
35.13, 24
35.14, 22
35.15, 33
35.16, 30
35.17, 34
35.18, 24
35.19, 35
35.2, 40
35.21, 37
35.22, 34
35.23, 49
35.24, 51
35.25, 58
35.26, 47
35.27, 77
35.28, 63
35.29, 68
35.3, 74
35.31, 89
35.32, 86
35.33, 60
35.34, 84
35.35, 77
35.36, 63
35.37, 94
35.38, 74
35.39, 70
35.4, 73
35.41, 64
35.42, 67
35.43, 68
35.44, 69
35.45, 64
35.46, 71
35.47, 46
35.48, 48
35.49, 55
35.5, 58
35.51, 46
35.52, 38
35.53, 41
35.54, 26
35.55, 43
35.56, 42
35.57, 29
35.58, 27
35.59, 38
35.6, 26
35.61, 39
35.62, 34
35.63, 37
35.64, 26
35.65, 41
35.66, 43
35.67, 25
35.68, 32
35.69, 29
35.7, 29
35.71, 29
35.72, 30
35.73, 37
35.74, 41
35.75, 30
35.76, 32
35.77, 28
35.78, 21
35.79, 25
35.8, 19
35.81, 26
35.82, 34
35.83, 26
35.84, 23
35.85, 21
35.86, 22
35.87, 31
35.88, 19
35.89, 19
35.9, 21
35.91, 21
35.92, 18
35.93, 15
35.94, 23
35.95, 26
35.96, 18
35.97, 21
35.98, 23
35.99, 22
36, 20
36.01, 23
36.02, 26
36.03, 23
36.04, 18
36.05, 16
36.06, 25
36.07, 26
36.08, 27
36.09, 29
36.1, 24
36.11, 34
36.12, 22
36.13, 21
36.14, 32
36.15, 24
36.16, 22
36.17, 30
36.18, 31
36.19, 36
36.2, 34
36.21, 34
36.22, 56
36.23, 29
36.24, 39
36.25, 31
36.26, 41
36.27, 53
36.28, 47
36.29, 57
36.3, 64
36.31, 53
36.32, 74
36.33, 64
36.34, 91
36.35, 79
36.36, 99
36.37, 124
36.38, 128
36.39, 130
36.4, 124
36.41, 132
36.42, 129
36.43, 142
36.44, 131
36.45, 137
36.46, 132
36.47, 128
36.48, 143
36.49, 132
36.5, 135
36.51, 133
36.52, 121
36.53, 104
36.54, 115
36.55, 107
36.56, 107
36.57, 122
36.58, 105
36.59, 110
36.6, 95
36.61, 118
36.62, 91
36.63, 82
36.64, 107
36.65, 111
36.66, 107
36.67, 102
36.68, 133
36.69, 105
36.7, 129
36.71, 113
36.72, 108
36.73, 108
36.74, 119
36.75, 120
36.76, 112
36.77, 154
36.78, 149
36.79, 137
36.8, 127
36.81, 136
36.82, 134
36.83, 146
36.84, 117
36.85, 145
36.86, 142
36.87, 155
36.88, 172
36.89, 134
36.9, 137
36.91, 119
36.92, 114
36.93, 113
36.94, 132
36.95, 113
36.96, 96
36.97, 115
36.98, 84
36.99, 93
37, 94
37.01, 86
37.02, 61
37.03, 65
37.04, 66
37.05, 52
37.06, 67
37.07, 56
37.08, 40
37.09, 50
37.1, 44
37.11, 46
37.12, 41
37.13, 35
37.14, 40
37.15, 34
37.16, 27
37.17, 33
37.18, 45
37.19, 29
37.2, 33
37.21, 27
37.22, 29
37.23, 28
37.24, 18
37.25, 22
37.26, 21
37.27, 18
37.28, 24
37.29, 23
37.3, 22
37.31, 20
37.32, 13
37.33, 28
37.34, 19
37.35, 12
37.36, 22
37.37, 20
37.38, 23
37.39, 20
37.4, 21
37.41, 13
37.42, 13
37.43, 13
37.44, 17
37.45, 10
37.46, 22
37.47, 18
37.48, 8
37.49, 10
37.5, 12
37.51, 15
37.52, 14
37.53, 15
37.54, 23
37.55, 15
37.56, 17
37.57, 20
37.58, 20
37.59, 17
37.6, 19
37.61, 14
37.62, 14
37.63, 11
37.64, 10
37.65, 14
37.66, 12
37.67, 12
37.68, 7
37.69, 16
37.7, 15
37.71, 19
37.72, 15
37.73, 18
37.74, 14
37.75, 13
37.76, 10
37.77, 12
37.78, 11
37.79, 10
37.8, 23
37.81, 15
37.82, 11
37.83, 12
37.84, 9
37.85, 10
37.86, 13
37.87, 17
37.88, 7
37.89, 15
37.9, 6
37.91, 12
37.92, 13
37.93, 12
37.94, 8
37.95, 14
37.96, 10
37.97, 12
37.98, 18
37.99, 10
38, 12
38.01, 11
38.02, 12
38.03, 13
38.04, 7
38.05, 12
38.06, 12
38.07, 15
38.08, 10
38.09, 14
38.1, 11
38.11, 13
38.12, 16
38.13, 13
38.14, 10
38.15, 11
38.16, 11
38.17, 10
38.18, 6
38.19, 11
38.2, 11
38.21, 11
38.22, 8
38.23, 10
38.24, 13
38.25, 10
38.26, 10
38.27, 5
38.28, 11
38.29, 7
38.3, 12
38.31, 7
38.32, 17
38.33, 14
38.34, 12
38.35, 11
38.36, 15
38.37, 12
38.38, 15
38.39, 10
38.4, 12
38.41, 15
38.42, 13
38.43, 8
38.44, 10
38.45, 18
38.46, 12
38.47, 15
38.48, 15
38.49, 12
38.5, 12
38.51, 7
38.52, 9
38.53, 15
38.54, 9
38.55, 10
38.56, 6
38.57, 13
38.58, 19
38.59, 8
38.6, 5
38.61, 9
38.62, 8
38.63, 15
38.64, 17
38.65, 12
38.66, 14
38.67, 11
38.68, 10
38.69, 15
38.7, 12
38.71, 8
38.72, 14
38.73, 12
38.74, 9
38.75, 12
38.76, 16
38.77, 8
38.78, 9
38.79, 17
38.8, 11
38.81, 8
38.82, 9
38.83, 11
38.84, 8
38.85, 16
38.86, 14
38.87, 16
38.88, 8
38.89, 11
38.9, 10
38.91, 13
38.92, 3
38.93, 12
38.94, 18
38.95, 12
38.96, 12
38.97, 17
38.98, 11
38.99, 6
39, 10
39.01, 5
39.02, 6
39.03, 12
39.04, 14
39.05, 13
39.06, 17
39.07, 19
39.08, 12
39.09, 18
39.1, 15
39.11, 9
39.12, 20
39.13, 10
39.14, 13
39.15, 11
39.16, 10
39.17, 8
39.18, 15
39.19, 7
39.2, 14
39.21, 23
39.22, 9
39.23, 9
39.24, 12
39.25, 15
39.26, 7
39.27, 6
39.28, 9
39.29, 14
39.3, 7
39.31, 17
39.32, 14
39.33, 14
39.34, 10
39.35, 7
39.36, 13
39.37, 7
39.38, 13
39.39, 10
39.4, 11
39.41, 9
39.42, 13
39.43, 7
39.44, 21
39.45, 14
39.46, 7
39.47, 7
39.48, 12
39.49, 8
39.5, 16
39.51, 14
39.52, 7
39.53, 15
39.54, 11
39.55, 11
39.56, 14
39.57, 16
39.58, 11
39.59, 13
39.6, 11
39.61, 12
39.62, 9
39.63, 12
39.64, 8
39.65, 13
39.66, 15
39.67, 14
39.68, 14
39.69, 10
39.7, 12
39.71, 16
39.72, 11
39.73, 7
39.74, 19
39.75, 15
39.76, 15
39.77, 20
39.78, 15
39.79, 16
39.8, 6
39.81, 15
39.82, 20
39.83, 13
39.84, 13
39.85, 15
39.86, 18
39.87, 22
39.88, 26
39.89, 13
39.9, 21
39.91, 18
39.92, 14
39.93, 14
39.94, 14
39.95, 22
39.96, 17
39.97, 17
39.98, 20
39.99, 11
40, 28
40.01, 19
40.02, 22
40.03, 19
40.04, 24
40.05, 26
40.06, 15
40.07, 20
40.08, 21
40.09, 17
40.1, 18
40.11, 22
40.12, 11
40.13, 15
40.14, 16
40.15, 13
40.16, 16
40.17, 14
40.18, 16
40.19, 15
40.2, 13
40.21, 17
40.22, 23
40.23, 24
40.24, 27
40.25, 11
40.26, 8
40.27, 9
40.28, 15
40.29, 15
40.3, 10
40.31, 9
40.32, 18
40.33, 13
40.34, 16
40.35, 12
40.36, 18
40.37, 5
40.38, 14
40.39, 6
40.4, 8
40.41, 10
40.42, 10
40.43, 8
40.44, 12
40.45, 17
40.46, 14
40.47, 9
40.48, 10
40.49, 17
40.5, 11
40.51, 15
40.52, 12
40.53, 15
40.54, 9
40.55, 11
40.56, 12
40.57, 12
40.58, 15
40.59, 16
40.6, 13
40.61, 20
40.62, 8
40.63, 15
40.64, 14
40.65, 16
40.66, 15
40.67, 13
40.68, 5
40.69, 10
40.7, 20
40.71, 11
40.72, 13
40.73, 9
40.74, 14
40.75, 15
40.76, 5
40.77, 21
40.78, 14
40.79, 13
40.8, 7
40.81, 12
40.82, 18
40.83, 8
40.84, 8
40.85, 21
40.86, 12
40.87, 7
40.88, 15
40.89, 17
40.9, 8
40.91, 16
40.92, 13
40.93, 8
40.94, 10
40.95, 12
40.96, 20
40.97, 22
40.98, 12
40.99, 14
41, 10
41.01, 15
41.02, 9
41.03, 17
41.04, 25
41.05, 9
41.06, 17
41.07, 12
41.08, 15
41.09, 13
41.1, 8
41.11, 13
41.12, 15
41.13, 6
41.14, 16
41.15, 18
41.16, 19
41.17, 5
41.18, 8
41.19, 13
41.2, 9
41.21, 10
41.22, 6
41.23, 13
41.24, 11
41.25, 18
41.26, 15
41.27, 16
41.28, 20
41.29, 8
41.3, 14
41.31, 21
41.32, 15
41.33, 16
41.34, 18
41.35, 18
41.36, 23
41.37, 15
41.38, 22
41.39, 18
41.4, 17
41.41, 21
41.42, 26
41.43, 22
41.44, 34
41.45, 30
41.46, 26
41.47, 25
41.48, 34
41.49, 42
41.5, 41
41.51, 42
41.52, 42
41.53, 44
41.54, 45
41.55, 45
41.56, 57
41.57, 68
41.58, 53
41.59, 53
41.6, 52
41.61, 63
41.62, 66
41.63, 58
41.64, 52
41.65, 66
41.66, 61
41.67, 44
41.68, 56
41.69, 42
41.7, 53
41.71, 43
41.72, 45
41.73, 34
41.74, 42
41.75, 29
41.76, 27
41.77, 30
41.78, 31
41.79, 28
41.8, 21
41.81, 34
41.82, 20
41.83, 22
41.84, 24
41.85, 12
41.86, 20
41.87, 16
41.88, 23
41.89, 16
41.9, 23
41.91, 21
41.92, 19
41.93, 17
41.94, 17
41.95, 18
41.96, 22
41.97, 19
41.98, 15
41.99, 11
42, 11
42.01, 13
42.02, 19
42.03, 9
42.04, 15
42.05, 14
42.06, 11
42.07, 13
42.08, 12
42.09, 15
42.1, 9
42.11, 21
42.12, 21
42.13, 8
42.14, 12
42.15, 23
42.16, 15
42.17, 16
42.18, 11
42.19, 9
42.2, 7
42.21, 22
42.22, 18
42.23, 6
42.24, 16
42.25, 12
42.26, 15
42.27, 10
42.28, 16
42.29, 14
42.3, 22
42.31, 21
42.32, 11
42.33, 15
42.34, 16
42.35, 13
42.36, 8
42.37, 13
42.38, 9
42.39, 11
42.4, 13
42.41, 15
42.42, 10
42.43, 12
42.44, 14
42.45, 9
42.46, 13
42.47, 18
42.48, 13
42.49, 16
42.5, 12
42.51, 18
42.52, 12
42.53, 17
42.54, 14
42.55, 10
42.56, 15
42.57, 8
42.58, 26
42.59, 9
42.6, 9
42.61, 11
42.62, 16
42.63, 12
42.64, 19
42.65, 9
42.66, 14
42.67, 11
42.68, 12
42.69, 15
42.7, 19
42.71, 14
42.72, 6
42.73, 12
42.74, 11
42.75, 13
42.76, 12
42.77, 18
42.78, 12
42.79, 15
42.8, 20
42.81, 14
42.82, 18
42.83, 12
42.84, 14
42.85, 8
42.86, 23
42.87, 14
42.88, 14
42.89, 19
42.9, 15
42.91, 13
42.92, 16
42.93, 17
42.94, 14
42.95, 14
42.96, 18
42.97, 15
42.98, 18
42.99, 15
43, 16
43.01, 19
43.02, 23
43.03, 20
43.04, 16
43.05, 17
43.06, 11
43.07, 17
43.08, 18
43.09, 21
43.1, 20
43.11, 28
43.12, 17
43.13, 21
43.14, 25
43.15, 23
43.16, 24
43.17, 21
43.18, 15
43.19, 26
43.2, 29
43.21, 20
43.22, 17
43.23, 25
43.24, 22
43.25, 24
43.26, 25
43.27, 29
43.28, 18
43.29, 17
43.3, 22
43.31, 19
43.32, 12
43.33, 20
43.34, 12
43.35, 21
43.36, 32
43.37, 22
43.38, 24
43.39, 22
43.4, 11
43.41, 17
43.42, 16
43.43, 19
43.44, 18
43.45, 27
43.46, 24
43.47, 14
43.48, 18
43.49, 15
43.5, 25
43.51, 18
43.52, 16
43.53, 21
43.54, 18
43.55, 11
43.56, 21
43.57, 18
43.58, 15
43.59, 14
43.6, 13
43.61, 18
43.62, 16
43.63, 14
43.64, 20
43.65, 21
43.66, 20
43.67, 20
43.68, 13
43.69, 19
43.7, 22
43.71, 15
43.72, 19
43.73, 13
43.74, 18
43.75, 22
43.76, 19
43.77, 12
43.78, 27
43.79, 17
43.8, 22
43.81, 18
43.82, 18
43.83, 22
43.84, 17
43.85, 23
43.86, 21
43.87, 14
43.88, 22
43.89, 15
43.9, 19
43.91, 18
43.92, 33
43.93, 18
43.94, 23
43.95, 22
43.96, 28
43.97, 20
43.98, 25
43.99, 16
44, 21
44.01, 19
44.02, 24
44.03, 23
44.04, 27
44.05, 31
44.06, 27
44.07, 27
44.08, 24
44.09, 38
44.1, 25
44.11, 29
44.12, 28
44.13, 34
44.14, 41
44.15, 32
44.16, 42
44.17, 44
44.18, 52
44.19, 37
44.2, 51
44.21, 59
44.22, 66
44.23, 60
44.24, 76
44.25, 83
44.26, 90
44.27, 101
44.28, 119
44.29, 113
44.3, 138
44.31, 114
44.32, 125
44.33, 152
44.34, 156
44.35, 161
44.36, 163
44.37, 182
44.38, 170
44.39, 140
44.4, 163
44.41, 162
44.42, 186
44.43, 151
44.44, 130
44.45, 152
44.46, 155
44.47, 151
44.48, 141
44.49, 129
44.5, 125
44.51, 115
44.52, 98
44.53, 100
44.54, 103
44.55, 97
44.56, 91
44.57, 77
44.58, 75
44.59, 59
44.6, 66
44.61, 71
44.62, 55
44.63, 69
44.64, 49
44.65, 51
44.66, 53
44.67, 39
44.68, 45
44.69, 47
44.7, 39
44.71, 36
44.72, 25
44.73, 35
44.74, 39
44.75, 23
44.76, 26
44.77, 30
44.78, 21
44.79, 27
44.8, 21
44.81, 25
44.82, 18
44.83, 15
44.84, 31
44.85, 20
44.86, 24
44.87, 25
44.88, 16
44.89, 25
44.9, 28
44.91, 16
44.92, 16
44.93, 21
44.94, 21
44.95, 21
44.96, 21
44.97, 20
44.98, 19
44.99, 14
45, 25
45.01, 26
45.02, 12
45.03, 21
45.04, 15
45.05, 15
45.06, 14
45.07, 11
45.08, 8
45.09, 16
45.1, 21
45.11, 16
45.12, 19
45.13, 24
45.14, 17
45.15, 20
45.16, 18
45.17, 29
45.18, 21
45.19, 14
45.2, 15
45.21, 18
45.22, 18
45.23, 10
45.24, 13
45.25, 17
45.26, 19
45.27, 27
45.28, 24
45.29, 15
45.3, 22
45.31, 17
45.32, 17
45.33, 16
45.34, 21
45.35, 26
45.36, 18
45.37, 22
45.38, 15
45.39, 20
45.4, 13
45.41, 16
45.42, 17
45.43, 17
45.44, 25
45.45, 14
45.46, 18
45.47, 14
45.48, 23
45.49, 16
45.5, 20
45.51, 21
45.52, 15
45.53, 24
45.54, 22
45.55, 29
45.56, 23
45.57, 19
45.58, 22
45.59, 26
45.6, 22
45.61, 25
45.62, 25
45.63, 34
45.64, 22
45.65, 37
45.66, 25
45.67, 23
45.68, 24
45.69, 27
45.7, 28
45.71, 41
45.72, 46
45.73, 41
45.74, 45
45.75, 27
45.76, 29
45.77, 37
45.78, 27
45.79, 38
45.8, 30
45.81, 38
45.82, 47
45.83, 47
45.84, 42
45.85, 49
45.86, 44
45.87, 48
45.88, 48
45.89, 60
45.9, 42
45.91, 41
45.92, 63
45.93, 67
45.94, 52
45.95, 42
45.96, 50
45.97, 56
45.98, 34
45.99, 60
46, 50
46.01, 61
46.02, 55
46.03, 61
46.04, 49
46.05, 49
46.06, 56
46.07, 46
46.08, 49
46.09, 41
46.1, 46
46.11, 37
46.12, 48
46.13, 45
46.14, 45
46.15, 32
46.16, 41
46.17, 45
46.18, 26
46.19, 52
46.2, 39
46.21, 36
46.22, 43
46.23, 37
46.24, 38
46.25, 27
46.26, 37
46.27, 29
46.28, 44
46.29, 31
46.3, 25
46.31, 19
46.32, 24
46.33, 25
46.34, 31
46.35, 30
46.36, 25
46.37, 26
46.38, 17
46.39, 30
46.4, 30
46.41, 19
46.42, 29
46.43, 25
46.44, 26
46.45, 23
46.46, 21
46.47, 20
46.48, 23
46.49, 17
46.5, 26
46.51, 16
46.52, 18
46.53, 26
46.54, 27
46.55, 21
46.56, 27
46.57, 22
46.58, 15
46.59, 24
46.6, 11
46.61, 23
46.62, 18
46.63, 24
46.64, 29
46.65, 32
46.66, 20
46.67, 33
46.68, 27
46.69, 20
46.7, 25
46.71, 36
46.72, 31
46.73, 28
46.74, 23
46.75, 37
46.76, 38
46.77, 50
46.78, 35
46.79, 52
46.8, 51
46.81, 43
46.82, 56
46.83, 59
46.84, 55
46.85, 55
46.86, 61
46.87, 66
46.88, 66
46.89, 83
46.9, 60
46.91, 68
46.92, 54
46.93, 65
46.94, 54
46.95, 62
46.96, 50
46.97, 76
46.98, 60
46.99, 57
47, 63
47.01, 58
47.02, 54
47.03, 46
47.04, 46
47.05, 51
47.06, 52
47.07, 33
47.08, 35
47.09, 41
47.1, 25
47.11, 31
47.12, 40
47.13, 37
47.14, 21
47.15, 29
47.16, 29
47.17, 22
47.18, 34
47.19, 22
47.2, 28
47.21, 25
47.22, 29
47.23, 19
47.24, 19
47.25, 21
47.26, 20
47.27, 19
47.28, 28
47.29, 20
47.3, 17
47.31, 21
47.32, 22
47.33, 17
47.34, 21
47.35, 16
47.36, 16
47.37, 14
47.38, 16
47.39, 20
47.4, 14
47.41, 20
47.42, 13
47.43, 23
47.44, 16
47.45, 19
47.46, 18
47.47, 17
47.48, 14
47.49, 22
47.5, 21
47.51, 24
47.52, 20
47.53, 23
47.54, 20
47.55, 16
47.56, 25
47.57, 12
47.58, 19
47.59, 25
47.6, 20
47.61, 16
47.62, 15
47.63, 27
47.64, 17
47.65, 24
47.66, 31
47.67, 36
47.68, 23
47.69, 28
47.7, 37
47.71, 32
47.72, 28
47.73, 29
47.74, 32
47.75, 29
47.76, 41
47.77, 32
47.78, 35
47.79, 40
47.8, 33
47.81, 41
47.82, 40
47.83, 33
47.84, 48
47.85, 42
47.86, 47
47.87, 49
47.88, 64
47.89, 65
47.9, 68
47.91, 58
47.92, 65
47.93, 69
47.94, 62
47.95, 89
47.96, 90
47.97, 77
47.98, 96
47.99, 84
48, 82
48.01, 76
48.02, 69
48.03, 86
48.04, 73
48.05, 66
48.06, 87
48.07, 94
48.08, 89
48.09, 78
48.1, 80
48.11, 70
48.12, 84
48.13, 78
48.14, 79
48.15, 84
48.16, 72
48.17, 77
48.18, 66
48.19, 61
48.2, 66
48.21, 59
48.22, 60
48.23, 55
48.24, 45
48.25, 51
48.26, 53
48.27, 50
48.28, 43
48.29, 45
48.3, 48
48.31, 37
48.32, 51
48.33, 40
48.34, 36
48.35, 44
48.36, 34
48.37, 30
48.38, 38
48.39, 28
48.4, 31
48.41, 29
48.42, 30
48.43, 23
48.44, 24
48.45, 21
48.46, 13
48.47, 21
48.48, 16
48.49, 17
48.5, 19
48.51, 20
48.52, 9
48.53, 19
48.54, 19
48.55, 19
48.56, 10
48.57, 18
48.58, 15
48.59, 16
48.6, 17
48.61, 24
48.62, 19
48.63, 16
48.64, 21
48.65, 7
48.66, 13
48.67, 12
48.68, 14
48.69, 19
48.7, 7
48.71, 16
48.72, 18
48.73, 11
48.74, 14
48.75, 14
48.76, 8
48.77, 11
48.78, 17
48.79, 10
48.8, 8
48.81, 12
48.82, 22
48.83, 18
48.84, 14
48.85, 10
48.86, 19
48.87, 17
48.88, 15
48.89, 19
48.9, 24
48.91, 11
48.92, 13
48.93, 22
48.94, 13
48.95, 15
48.96, 10
48.97, 12
48.98, 14
48.99, 12
49, 12
49.01, 14
49.02, 14
49.03, 11
49.04, 14
49.05, 17
49.06, 15
49.07, 10
49.08, 11
49.09, 11
49.1, 15
49.11, 18
49.12, 12
49.13, 13
49.14, 12
49.15, 8
49.16, 8
49.17, 14
49.18, 9
49.19, 14
49.2, 13
49.21, 15
49.22, 14
49.23, 17
49.24, 11
49.25, 11
49.26, 12
49.27, 14
49.28, 8
49.29, 13
49.3, 19
49.31, 12
49.32, 13
49.33, 11
49.34, 18
49.35, 12
49.36, 13
49.37, 13
49.38, 14
49.39, 12
49.4, 15
49.41, 16
49.42, 18
49.43, 8
49.44, 12
49.45, 12
49.46, 10
49.47, 18
49.48, 10
49.49, 11
49.5, 13
49.51, 9
49.52, 12
49.53, 11
49.54, 13
49.55, 13
49.56, 30
49.57, 17
49.58, 12
49.59, 11
49.6, 14
49.61, 16
49.62, 13
49.63, 14
49.64, 17
49.65, 21
49.66, 14
49.67, 19
49.68, 9
49.69, 22
49.7, 11
49.71, 15
49.72, 14
49.73, 17
49.74, 10
49.75, 22
49.76, 22
49.77, 21
49.78, 19
49.79, 18
49.8, 14
49.81, 21
49.82, 14
49.83, 18
49.84, 18
49.85, 22
49.86, 22
49.87, 21
49.88, 19
49.89, 26
49.9, 21
49.91, 19
49.92, 27
49.93, 18
49.94, 18
49.95, 19
49.96, 19
49.97, 20
49.98, 20
49.99, 14
50, 26
50.01, 28
50.02, 25
50.03, 21
50.04, 32
50.05, 46
50.06, 34
50.07, 39
50.08, 30
50.09, 48
50.1, 55
50.11, 38
50.12, 61
50.13, 43
50.14, 56
50.15, 63
50.16, 46
50.17, 71
50.18, 73
50.19, 78
50.2, 69
50.21, 78
50.22, 83
50.23, 76
50.24, 90
50.25, 92
50.26, 101
50.27, 79
50.28, 90
50.29, 89
50.3, 81
50.31, 81
50.32, 88
50.33, 95
50.34, 76
50.35, 76
50.36, 89
50.37, 54
50.38, 93
50.39, 61
50.4, 75
50.41, 62
50.42, 79
50.43, 76
50.44, 80
50.45, 72
50.46, 57
50.47, 76
50.48, 62
50.49, 63
50.5, 58
50.51, 46
50.52, 66
50.53, 47
50.54, 56
50.55, 51
50.56, 68
50.57, 58
50.58, 69
50.59, 55
50.6, 59
50.61, 63
50.62, 42
50.63, 54
50.64, 52
50.65, 44
50.66, 50
50.67, 48
50.68, 55
50.69, 72
50.7, 33
50.71, 44
50.72, 33
50.73, 40
50.74, 39
50.75, 41
50.76, 30
50.77, 28
50.78, 45
50.79, 30
50.8, 38
50.81, 30
50.82, 28
50.83, 41
50.84, 25
50.85, 40
50.86, 32
50.87, 27
50.88, 28
50.89, 15
50.9, 32
50.91, 19
50.92, 32
50.93, 24
50.94, 34
50.95, 18
50.96, 17
50.97, 24
50.98, 37
50.99, 21
51, 25
51.01, 19
51.02, 20
51.03, 19
51.04, 17
51.05, 19
51.06, 17
51.07, 19
51.08, 8
51.09, 20
51.1, 14
51.11, 19
51.12, 20
51.13, 19
51.14, 18
51.15, 20
51.16, 11
51.17, 22
51.18, 17
51.19, 14
51.2, 26
51.21, 16
51.22, 14
51.23, 18
51.24, 20
51.25, 19
51.26, 21
51.27, 16
51.28, 11
51.29, 8
51.3, 12
51.31, 10
51.32, 12
51.33, 11
51.34, 8
51.35, 10
51.36, 19
51.37, 11
51.38, 14
51.39, 14
51.4, 17
51.41, 14
51.42, 6
51.43, 13
51.44, 11
51.45, 14
51.46, 19
51.47, 10
51.48, 14
51.49, 22
51.5, 14
51.51, 11
51.52, 8
51.53, 14
51.54, 13
51.55, 19
51.56, 14
51.57, 12
51.58, 18
51.59, 15
51.6, 9
51.61, 11
51.62, 14
51.63, 15
51.64, 12
51.65, 11
51.66, 12
51.67, 16
51.68, 17
51.69, 12
51.7, 14
51.71, 13
51.72, 17
51.73, 7
51.74, 16
51.75, 10
51.76, 11
51.77, 16
51.78, 10
51.79, 15
51.8, 11
51.81, 16
51.82, 18
51.83, 12
51.84, 12
51.85, 13
51.86, 14
51.87, 20
51.88, 11
51.89, 13
51.9, 20
51.91, 16
51.92, 15
51.93, 12
51.94, 12
51.95, 15
51.96, 19
51.97, 20
51.98, 16
51.99, 15
52, 16
52.01, 20
52.02, 19
52.03, 23
52.04, 16
52.05, 28
52.06, 20
52.07, 24
52.08, 21
52.09, 21
52.1, 23
52.11, 16
52.12, 21
52.13, 13
52.14, 23
52.15, 20
52.16, 24
52.17, 18
52.18, 26
52.19, 15
52.2, 20
52.21, 19
52.22, 9
52.23, 14
52.24, 8
52.25, 13
52.26, 10
52.27, 18
52.28, 20
52.29, 13
52.3, 12
52.31, 17
52.32, 12
52.33, 10
52.34, 13
52.35, 9
52.36, 11
52.37, 19
52.38, 17
52.39, 13
52.4, 12
52.41, 9
52.42, 12
52.43, 15
52.44, 11
52.45, 11
52.46, 12
52.47, 4
52.48, 10
52.49, 15
52.5, 9
52.51, 8
52.52, 13
52.53, 14
52.54, 10
52.55, 13
52.56, 10
52.57, 15
52.58, 13
52.59, 11
52.6, 7
52.61, 7
52.62, 10
52.63, 7
52.64, 11
52.65, 12
52.66, 10
52.67, 7
52.68, 15
52.69, 13
52.7, 13
52.71, 12
52.72, 9
52.73, 14
52.74, 8
52.75, 14
52.76, 19
52.77, 10
52.78, 11
52.79, 14
52.8, 9
52.81, 14
52.82, 11
52.83, 16
52.84, 13
52.85, 15
52.86, 14
52.87, 13
52.88, 10
52.89, 10
52.9, 14
52.91, 9
52.92, 10
52.93, 13
52.94, 14
52.95, 10
52.96, 15
52.97, 9
52.98, 8
52.99, 14
53, 18
53.01, 16
53.02, 4
53.03, 15
53.04, 13
53.05, 11
53.06, 13
53.07, 14
53.08, 11
53.09, 6
53.1, 11
53.11, 13
53.12, 10
53.13, 13
53.14, 14
53.15, 12
53.16, 11
53.17, 14
53.18, 12
53.19, 18
53.2, 14
53.21, 10
53.22, 16
53.23, 19
53.24, 5
53.25, 15
53.26, 16
53.27, 12
53.28, 11
53.29, 15
53.3, 6
53.31, 17
53.32, 12
53.33, 20
53.34, 12
53.35, 13
53.36, 17
53.37, 22
53.38, 14
53.39, 14
53.4, 8
53.41, 16
53.42, 14
53.43, 7
53.44, 17
53.45, 17
53.46, 13
53.47, 19
53.48, 15
53.49, 12
53.5, 11
53.51, 15
53.52, 12
53.53, 9
53.54, 10
53.55, 16
53.56, 18
53.57, 12
53.58, 11
53.59, 17
53.6, 10
53.61, 10
53.62, 10
53.63, 14
53.64, 11
53.65, 7
53.66, 14
53.67, 12
53.68, 9
53.69, 17
53.7, 16
53.71, 14
53.72, 16
53.73, 8
53.74, 9
53.75, 13
53.76, 11
53.77, 7
53.78, 7
53.79, 15
53.8, 15
53.81, 10
53.82, 17
53.83, 8
53.84, 14
53.85, 11
53.86, 14
53.87, 12
53.88, 16
53.89, 11
53.9, 6
53.91, 12
53.92, 13
53.93, 11
53.94, 13
53.95, 12
53.96, 10
53.97, 12
53.98, 13
53.99, 9
54, 15
54.01, 13
54.02, 11
54.03, 8
54.04, 4
54.05, 16
54.06, 10
54.07, 10
54.08, 13
54.09, 16
54.1, 11
54.11, 7
54.12, 7
54.13, 7
54.14, 7
54.15, 16
54.16, 9
54.17, 17
54.18, 11
54.19, 8
54.2, 14
54.21, 10
54.22, 10
54.23, 11
54.24, 14
54.25, 14
54.26, 9
54.27, 13
54.28, 1
54.29, 15
54.3, 7
54.31, 10
54.32, 13
54.33, 11
54.34, 8
54.35, 14
54.36, 8
54.37, 13
54.38, 15
54.39, 5
54.4, 9
54.41, 12
54.42, 11
54.43, 15
54.44, 7
54.45, 6
54.46, 12
54.47, 8
54.48, 13
54.49, 8
54.5, 10
54.51, 14
54.52, 17
54.53, 8
54.54, 15
54.55, 15
54.56, 7
54.57, 12
54.58, 11
54.59, 12
54.6, 13
54.61, 10
54.62, 12
54.63, 15
54.64, 8
54.65, 5
54.66, 6
54.67, 15
54.68, 8
54.69, 7
54.7, 8
54.71, 9
54.72, 11
54.73, 7
54.74, 4
54.75, 13
54.76, 9
54.77, 10
54.78, 10
54.79, 13
54.8, 8
54.81, 8
54.82, 11
54.83, 13
54.84, 14
54.85, 16
54.86, 6
54.87, 8
54.88, 7
54.89, 7
54.9, 11
54.91, 7
54.92, 9
54.93, 10
54.94, 10
54.95, 7
54.96, 13
54.97, 6
54.98, 3
54.99, 3
55, 9
55.01, 15
55.02, 11
55.03, 16
55.04, 14
55.05, 12
55.06, 11
55.07, 10
55.08, 10
55.09, 11
55.1, 9
55.11, 11
55.12, 7
55.13, 6
55.14, 11
55.15, 11
55.16, 17
55.17, 12
55.18, 6
55.19, 14
55.2, 12
55.21, 18
55.22, 15
55.23, 15
55.24, 17
55.25, 17
55.26, 13
55.27, 15
55.28, 11
55.29, 16
55.3, 11
55.31, 18
55.32, 13
55.33, 18
55.34, 13
55.35, 13
55.36, 5
55.37, 11
55.38, 13
55.39, 11
55.4, 12
55.41, 11
55.42, 18
55.43, 12
55.44, 14
55.45, 5
55.46, 12
55.47, 17
55.48, 21
55.49, 21
55.5, 13
55.51, 12
55.52, 12
55.53, 13
55.54, 10
55.55, 14
55.56, 13
55.57, 14
55.58, 15
55.59, 16
55.6, 15
55.61, 10
55.62, 12
55.63, 11
55.64, 16
55.65, 10
55.66, 13
55.67, 10
55.68, 14
55.69, 9
55.7, 7
55.71, 8
55.72, 15
55.73, 10
55.74, 6
55.75, 14
55.76, 9
55.77, 11
55.78, 9
55.79, 15
55.8, 7
55.81, 11
55.82, 15
55.83, 11
55.84, 12
55.85, 9
55.86, 14
55.87, 8
55.88, 14
55.89, 6
55.9, 5
55.91, 8
55.92, 10
55.93, 11
55.94, 10
55.95, 6
55.96, 11
55.97, 11
55.98, 9
55.99, 7
56, 17
56.01, 7
56.02, 9
56.03, 12
56.04, 5
56.05, 10
56.06, 10
56.07, 7
56.08, 10
56.09, 13
56.1, 21
56.11, 14
56.12, 12
56.13, 9
56.14, 8
56.15, 13
56.16, 3
56.17, 9
56.18, 7
56.19, 11
56.2, 6
56.21, 6
56.22, 11
56.23, 6
56.24, 12
56.25, 5
56.26, 14
56.27, 12
56.28, 9
56.29, 10
56.3, 9
56.31, 7
56.32, 12
56.33, 14
56.34, 4
56.35, 12
56.36, 14
56.37, 13
56.38, 9
56.39, 6
56.4, 4
56.41, 7
56.42, 13
56.43, 5
56.44, 14
56.45, 8
56.46, 10
56.47, 11
56.48, 9
56.49, 10
56.5, 8
56.51, 5
56.52, 11
56.53, 9
56.54, 15
56.55, 10
56.56, 7
56.57, 9
56.58, 8
56.59, 11
56.6, 10
56.61, 12
56.62, 11
56.63, 10
56.64, 15
56.65, 10
56.66, 9
56.67, 11
56.68, 14
56.69, 11
56.7, 14
56.71, 9
56.72, 11
56.73, 14
56.74, 12
56.75, 16
56.76, 10
56.77, 14
56.78, 16
56.79, 17
56.8, 8
56.81, 14
56.82, 17
56.83, 7
56.84, 13
56.85, 14
56.86, 10
56.87, 8
56.88, 9
56.89, 9
56.9, 16
56.91, 12
56.92, 13
56.93, 18
56.94, 13
56.95, 16
56.96, 14
56.97, 18
56.98, 15
56.99, 11
57, 13
57.01, 19
57.02, 13
57.03, 10
57.04, 17
57.05, 28
57.06, 23
57.07, 13
57.08, 13
57.09, 12
57.1, 12
57.11, 27
57.12, 20
57.13, 10
57.14, 14
57.15, 13
57.16, 24
57.17, 18
57.18, 18
57.19, 15
57.2, 17
57.21, 12
57.22, 10
57.23, 15
57.24, 19
57.25, 17
57.26, 14
57.27, 23
57.28, 21
57.29, 23
57.3, 15
57.31, 19
57.32, 17
57.33, 22
57.34, 16
57.35, 20
57.36, 12
57.37, 16
57.38, 20
57.39, 17
57.4, 19
57.41, 25
57.42, 26
57.43, 19
57.44, 32
57.45, 21
57.46, 19
57.47, 25
57.48, 27
57.49, 21
57.5, 25
57.51, 39
57.52, 26
57.53, 23
57.54, 32
57.55, 40
57.56, 33
57.57, 26
57.58, 32
57.59, 35
57.6, 20
57.61, 30
57.62, 35
57.63, 26
57.64, 39
57.65, 32
57.66, 20
57.67, 37
57.68, 40
57.69, 26
57.7, 33
57.71, 30
57.72, 34
57.73, 19
57.74, 29
57.75, 29
57.76, 28
57.77, 24
57.78, 30
57.79, 31
57.8, 31
57.81, 25
57.82, 24
57.83, 20
57.84, 20
57.85, 18
57.86, 15
57.87, 23
57.88, 20
57.89, 15
57.9, 23
57.91, 18
57.92, 22
57.93, 14
57.94, 20
57.95, 12
57.96, 20
57.97, 25
57.98, 13
57.99, 16
58, 20
58.01, 13
58.02, 12
58.03, 17
58.04, 15
58.05, 23
58.06, 14
58.07, 9
58.08, 17
58.09, 14
58.1, 12
58.11, 10
58.12, 14
58.13, 10
58.14, 13
58.15, 22
58.16, 14
58.17, 10
58.18, 8
58.19, 14
58.2, 14
58.21, 13
58.22, 16
58.23, 13
58.24, 12
58.25, 24
58.26, 12
58.27, 14
58.28, 11
58.29, 17
58.3, 17
58.31, 6
58.32, 18
58.33, 5
58.34, 10
58.35, 14
58.36, 13
58.37, 14
58.38, 12
58.39, 18
58.4, 9
58.41, 18
58.42, 13
58.43, 12
58.44, 13
58.45, 14
58.46, 8
58.47, 21
58.48, 15
58.49, 20
58.5, 12
58.51, 12
58.52, 7
58.53, 17
58.54, 13
58.55, 16
58.56, 14
58.57, 19
58.58, 13
58.59, 12
58.6, 16
58.61, 9
58.62, 12
58.63, 18
58.64, 8
58.65, 10
58.66, 12
58.67, 12
58.68, 16
58.69, 10
58.7, 16
58.71, 16
58.72, 10
58.73, 14
58.74, 17
58.75, 11
58.76, 15
58.77, 16
58.78, 16
58.79, 15
58.8, 8
58.81, 5
58.82, 14
58.83, 14
58.84, 10
58.85, 14
58.86, 13
58.87, 16
58.88, 12
58.89, 13
58.9, 15
58.91, 14
58.92, 12
58.93, 9
58.94, 17
58.95, 14
58.96, 25
58.97, 18
58.98, 21
58.99, 19
59, 14
59.01, 14
59.02, 23
59.03, 21
59.04, 17
59.05, 28
59.06, 23
59.07, 16
59.08, 26
59.09, 15
59.1, 22
59.11, 17
59.12, 23
59.13, 20
59.14, 19
59.15, 22
59.16, 23
59.17, 17
59.18, 17
59.19, 25
59.2, 22
59.21, 24
59.22, 26
59.23, 36
59.24, 24
59.25, 20
59.26, 38
59.27, 40
59.28, 27
59.29, 30
59.3, 17
59.31, 27
59.32, 30
59.33, 24
59.34, 29
59.35, 28
59.36, 31
59.37, 22
59.38, 21
59.39, 23
59.4, 18
59.41, 29
59.42, 24
59.43, 23
59.44, 20
59.45, 23
59.46, 24
59.47, 17
59.48, 16
59.49, 21
59.5, 22
59.51, 29
59.52, 14
59.53, 19
59.54, 22
59.55, 20
59.56, 23
59.57, 19
59.58, 9
59.59, 14
59.6, 21
59.61, 16
59.62, 18
59.63, 19
59.64, 13
59.65, 19
59.66, 26
59.67, 13
59.68, 11
59.69, 19
59.7, 16
59.71, 16
59.72, 12
59.73, 14
59.74, 15
59.75, 13
59.76, 17
59.77, 16
59.78, 22
59.79, 23
59.8, 15
59.81, 15
59.82, 10
59.83, 14
59.84, 16
59.85, 14
59.86, 16
59.87, 9
59.88, 21
59.89, 15
59.9, 16
59.91, 18
59.92, 21
59.93, 15
59.94, 16
59.95, 12
59.96, 17
59.97, 23
59.98, 8
59.99, 18
60, 22
60.01, 18
60.02, 17
60.03, 14
60.04, 12
60.05, 14
60.06, 22
60.07, 20
60.08, 22
60.09, 16
60.1, 18
60.11, 20
60.12, 24
60.13, 26
60.14, 19
60.15, 18
60.16, 18
60.17, 22
60.18, 15
60.19, 20
60.2, 22
60.21, 15
60.22, 16
60.23, 19
60.24, 19
60.25, 30
60.26, 25
60.27, 21
60.28, 28
60.29, 22
60.3, 26
60.31, 21
60.32, 15
60.33, 24
60.34, 25
60.35, 15
60.36, 16
60.37, 18
60.38, 13
60.39, 25
60.4, 33
60.41, 14
60.42, 24
60.43, 19
60.44, 21
60.45, 18
60.46, 16
60.47, 20
60.48, 23
60.49, 16
60.5, 23
60.51, 26
60.52, 15
60.53, 18
60.54, 17
60.55, 17
60.56, 22
60.57, 16
60.58, 17
60.59, 14
60.6, 22
60.61, 16
60.62, 16
60.63, 10
60.64, 14
60.65, 17
60.66, 9
60.67, 16
60.68, 17
60.69, 18
60.7, 11
60.71, 23
60.72, 11
60.73, 22
60.74, 13
60.75, 18
60.76, 16
60.77, 15
60.78, 16
60.79, 11
60.8, 14
60.81, 16
60.82, 14
60.83, 17
60.84, 9
60.85, 12
60.86, 11
60.87, 9
60.88, 12
60.89, 13
60.9, 11
60.91, 10
60.92, 11
60.93, 25
60.94, 13
60.95, 9
60.96, 13
60.97, 8
60.98, 12
60.99, 12
61, 9
61.01, 13
61.02, 15
61.03, 9
61.04, 11
61.05, 11
61.06, 14
61.07, 14
61.08, 15
61.09, 10
61.1, 7
61.11, 10
61.12, 14
61.13, 12
61.14, 13
61.15, 11
61.16, 13
61.17, 7
61.18, 14
61.19, 7
61.2, 9
61.21, 11
61.22, 15
61.23, 9
61.24, 23
61.25, 17
61.26, 12
61.27, 11
61.28, 14
61.29, 11
61.3, 5
61.31, 13
61.32, 11
61.33, 12
61.34, 13
61.35, 18
61.36, 12
61.37, 11
61.38, 15
61.39, 9
61.4, 8
61.41, 6
61.42, 8
61.43, 10
61.44, 6
61.45, 5
61.46, 8
61.47, 5
61.48, 9
61.49, 8
61.5, 10
61.51, 8
61.52, 7
61.53, 14
61.54, 12
61.55, 6
61.56, 15
61.57, 12
61.58, 12
61.59, 15
61.6, 11
61.61, 14
61.62, 10
61.63, 8
61.64, 5
61.65, 13
61.66, 13
61.67, 10
61.68, 11
61.69, 10
61.7, 13
61.71, 7
61.72, 10
61.73, 7
61.74, 10
61.75, 7
61.76, 17
61.77, 17
61.78, 12
61.79, 10
61.8, 11
61.81, 14
61.82, 10
61.83, 15
61.84, 10
61.85, 14
61.86, 18
61.87, 15
61.88, 10
61.89, 8
61.9, 14
61.91, 17
61.92, 14
61.93, 11
61.94, 12
61.95, 12
61.96, 7
61.97, 18
61.98, 10
61.99, 11
62, 14
62.01, 9
62.02, 11
62.03, 12
62.04, 8
62.05, 13
62.06, 12
62.07, 11
62.08, 8
62.09, 9
62.1, 9
62.11, 14
62.12, 10
62.13, 8
62.14, 9
62.15, 9
62.16, 8
62.17, 17
62.18, 4
62.19, 8
62.2, 11
62.21, 4
62.22, 10
62.23, 11
62.24, 12
62.25, 16
62.26, 8
62.27, 6
62.28, 8
62.29, 9
62.3, 8
62.31, 9
62.32, 10
62.33, 12
62.34, 9
62.35, 15
62.36, 10
62.37, 11
62.38, 9
62.39, 8
62.4, 8
62.41, 15
62.42, 13
62.43, 9
62.44, 10
62.45, 11
62.46, 7
62.47, 11
62.48, 12
62.49, 5
62.5, 9
62.51, 13
62.52, 11
62.53, 7
62.54, 14
62.55, 8
62.56, 15
62.57, 13
62.58, 13
62.59, 8
62.6, 7
62.61, 18
62.62, 8
62.63, 11
62.64, 8
62.65, 12
62.66, 9
62.67, 10
62.68, 14
62.69, 10
62.7, 10
62.71, 10
62.72, 5
62.73, 10
62.74, 12
62.75, 12
62.76, 11
62.77, 12
62.78, 16
62.79, 17
62.8, 19
62.81, 10
62.82, 17
62.83, 7
62.84, 14
62.85, 15
62.86, 17
62.87, 7
62.88, 17
62.89, 15
62.9, 11
62.91, 13
62.92, 13
62.93, 19
62.94, 15
62.95, 15
62.96, 11
62.97, 11
62.98, 13
62.99, 8
63, 17
63.01, 12
63.02, 22
63.03, 15
63.04, 22
63.05, 19
63.06, 16
63.07, 17
63.08, 16
63.09, 14
63.1, 13
63.11, 17
63.12, 17
63.13, 10
63.14, 17
63.15, 12
63.16, 18
63.17, 10
63.18, 18
63.19, 10
63.2, 15
63.21, 15
63.22, 18
63.23, 22
63.24, 15
63.25, 18
63.26, 24
63.27, 18
63.28, 19
63.29, 16
63.3, 17
63.31, 15
63.32, 22
63.33, 20
63.34, 13
63.35, 20
63.36, 19
63.37, 18
63.38, 24
63.39, 13
63.4, 5
63.41, 14
63.42, 7
63.43, 17
63.44, 21
63.45, 23
63.46, 13
63.47, 19
63.48, 13
63.49, 9
63.5, 24
63.51, 14
63.52, 11
63.53, 11
63.54, 11
63.55, 19
63.56, 10
63.57, 11
63.58, 14
63.59, 16
63.6, 10
63.61, 9
63.62, 13
63.63, 14
63.64, 11
63.65, 8
63.66, 6
63.67, 5
63.68, 6
63.69, 11
63.7, 13
63.71, 11
63.72, 16
63.73, 10
63.74, 10
63.75, 11
63.76, 10
63.77, 11
63.78, 10
63.79, 15
63.8, 12
63.81, 15
63.82, 16
63.83, 8
63.84, 11
63.85, 12
63.86, 13
63.87, 19
63.88, 12
63.89, 12
63.9, 7
63.91, 10
63.92, 13
63.93, 13
63.94, 16
63.95, 16
63.96, 13
63.97, 9
63.98, 11
63.99, 14
64, 13
64.01, 12
64.02, 20
64.03, 20
64.04, 13
64.05, 14
64.06, 19
64.07, 16
64.08, 20
64.09, 22
64.1, 28
64.11, 15
64.12, 24
64.13, 20
64.14, 20
64.15, 17
64.16, 33
64.17, 26
64.18, 27
64.19, 11
64.2, 17
64.21, 19
64.22, 20
64.23, 20
64.24, 31
64.25, 25
64.26, 22
64.27, 21
64.28, 24
64.29, 27
64.3, 20
64.31, 33
64.32, 29
64.33, 10
64.34, 29
64.35, 31
64.36, 25
64.37, 17
64.38, 28
64.39, 29
64.4, 19
64.41, 30
64.42, 16
64.43, 19
64.44, 22
64.45, 16
64.46, 26
64.47, 21
64.48, 24
64.49, 14
64.5, 19
64.51, 35
64.52, 17
64.53, 19
64.54, 12
64.55, 21
64.56, 20
64.57, 22
64.58, 23
64.59, 17
64.6, 15
64.61, 21
64.62, 14
64.63, 15
64.64, 19
64.65, 17
64.66, 17
64.67, 16
64.68, 17
64.69, 21
64.7, 15
64.71, 12
64.72, 14
64.73, 11
64.74, 12
64.75, 11
64.76, 24
64.77, 13
64.78, 10
64.79, 11
64.8, 18
64.81, 11
64.82, 9
64.83, 12
64.84, 11
64.85, 13
64.86, 16
64.87, 11
64.88, 11
64.89, 11
64.9, 14
64.91, 13
64.92, 12
64.93, 6
64.94, 12
64.95, 6
64.96, 12
64.97, 13
64.98, 16
64.99, 9
65, 12
65.01, 7
65.02, 10
65.03, 9
65.04, 10
65.05, 11
65.06, 17
65.07, 9
65.08, 16
65.09, 9
65.1, 13
65.11, 10
65.12, 17
65.13, 12
65.14, 13
65.15, 15
65.16, 6
65.17, 11
65.18, 14
65.19, 8
65.2, 5
65.21, 5
65.22, 9
65.23, 13
65.24, 10
65.25, 8
65.26, 10
65.27, 11
65.28, 11
65.29, 9
65.3, 13
65.31, 12
65.32, 14
65.33, 17
65.34, 12
65.35, 10
65.36, 8
65.37, 17
65.38, 8
65.39, 14
65.4, 6
65.41, 17
65.42, 11
65.43, 14
65.44, 11
65.45, 14
65.46, 8
65.47, 12
65.48, 10
65.49, 15
65.5, 13
65.51, 26
65.52, 22
65.53, 18
65.54, 17
65.55, 13
65.56, 13
65.57, 13
65.58, 14
65.59, 14
65.6, 10
65.61, 20
65.62, 17
65.63, 10
65.64, 17
65.65, 16
65.66, 28
65.67, 15
65.68, 10
65.69, 22
65.7, 20
65.71, 17
65.72, 19
65.73, 21
65.74, 18
65.75, 23
65.76, 18
65.77, 16
65.78, 24
65.79, 23
65.8, 29
65.81, 15
65.82, 9
65.83, 19
65.84, 25
65.85, 22
65.86, 18
65.87, 35
65.88, 27
65.89, 17
65.9, 20
65.91, 22
65.92, 23
65.93, 19
65.94, 15
65.95, 20
65.96, 15
65.97, 19
65.98, 26
65.99, 19
66, 29
66.01, 25
66.02, 22
66.03, 35
66.04, 18
66.05, 17
66.06, 32
66.07, 20
66.08, 23
66.09, 20
66.1, 21
66.11, 16
66.12, 20
66.13, 24
66.14, 24
66.15, 22
66.16, 18
66.17, 22
66.18, 14
66.19, 21
66.2, 24
66.21, 25
66.22, 24
66.23, 17
66.24, 14
66.25, 24
66.26, 18
66.27, 16
66.28, 15
66.29, 17
66.3, 13
66.31, 16
66.32, 13
66.33, 20
66.34, 12
66.35, 19
66.36, 22
66.37, 14
66.38, 15
66.39, 13
66.4, 20
66.41, 20
66.42, 23
66.43, 12
66.44, 13
66.45, 10
66.46, 11
66.47, 19
66.48, 18
66.49, 12
66.5, 12
66.51, 15
66.52, 13
66.53, 16
66.54, 16
66.55, 14
66.56, 9
66.57, 20
66.58, 13
66.59, 16
66.6, 17
66.61, 8
66.62, 30
66.63, 15
66.64, 10
66.65, 18
66.66, 20
66.67, 15
66.68, 19
66.69, 16
66.7, 19
66.71, 15
66.72, 13
66.73, 10
66.74, 14
66.75, 13
66.76, 13
66.77, 13
66.78, 9
66.79, 17
66.8, 15
66.81, 19
66.82, 15
66.83, 18
66.84, 22
66.85, 13
66.86, 15
66.87, 17
66.88, 18
66.89, 14
66.9, 16
66.91, 24
66.92, 14
66.93, 19
66.94, 18
66.95, 17
66.96, 11
66.97, 14
66.98, 15
66.99, 18
67, 24
67.01, 12
67.02, 21
67.03, 17
67.04, 14
67.05, 16
67.06, 14
67.07, 12
67.08, 11
67.09, 9
67.1, 12
67.11, 13
67.12, 16
67.13, 9
67.14, 12
67.15, 13
67.16, 12
67.17, 15
67.18, 17
67.19, 13
67.2, 18
67.21, 14
67.22, 11
67.23, 15
67.24, 8
67.25, 13
67.26, 10
67.27, 11
67.28, 8
67.29, 13
67.3, 14
67.31, 12
67.32, 9
67.33, 21
67.34, 10
67.35, 12
67.36, 11
67.37, 9
67.38, 20
67.39, 15
67.4, 15
67.41, 13
67.42, 11
67.43, 11
67.44, 15
67.45, 9
67.46, 13
67.47, 12
67.48, 8
67.49, 14
67.5, 10
67.51, 3
67.52, 10
67.53, 15
67.54, 12
67.55, 15
67.56, 14
67.57, 15
67.58, 12
67.59, 9
67.6, 20
67.61, 10
67.62, 13
67.63, 12
67.64, 13
67.65, 11
67.66, 12
67.67, 9
67.68, 10
67.69, 12
67.7, 12
67.71, 13
67.72, 6
67.73, 7
67.74, 14
67.75, 8
67.76, 12
67.77, 8
67.78, 9
67.79, 19
67.8, 10
67.81, 13
67.82, 13
67.83, 14
67.84, 7
67.85, 16
67.86, 14
67.87, 9
67.88, 11
67.89, 7
67.9, 5
67.91, 8
67.92, 7
67.93, 5
67.94, 5
67.95, 12
67.96, 6
67.97, 11
67.98, 10
67.99, 10
68, 11
68.01, 9
68.02, 14
68.03, 14
68.04, 5
68.05, 10
68.06, 12
68.07, 13
68.08, 9
68.09, 18
68.1, 8
68.11, 8
68.12, 12
68.13, 6
68.14, 11
68.15, 9
68.16, 8
68.17, 11
68.18, 14
68.19, 11
68.2, 12
68.21, 16
68.22, 15
68.23, 6
68.24, 8
68.25, 12
68.26, 13
68.27, 15
68.28, 15
68.29, 10
68.3, 9
68.31, 14
68.32, 8
68.33, 18
68.34, 14
68.35, 12
68.36, 13
68.37, 6
68.38, 8
68.39, 10
68.4, 9
68.41, 7
68.42, 11
68.43, 5
68.44, 10
68.45, 11
68.46, 8
68.47, 9
68.48, 8
68.49, 7
68.5, 9
68.51, 5
68.52, 14
68.53, 15
68.54, 10
68.55, 15
68.56, 8
68.57, 7
68.58, 14
68.59, 9
68.6, 5
68.61, 9
68.62, 8
68.63, 11
68.64, 9
68.65, 10
68.66, 6
68.67, 9
68.68, 10
68.69, 8
68.7, 7
68.71, 4
68.72, 9
68.73, 7
68.74, 10
68.75, 4
68.76, 5
68.77, 5
68.78, 9
68.79, 8
68.8, 9
68.81, 9
68.82, 11
68.83, 6
68.84, 17
68.85, 6
68.86, 5
68.87, 13
68.88, 5
68.89, 11
68.9, 12
68.91, 13
68.92, 5
68.93, 10
68.94, 11
68.95, 11
68.96, 8
68.97, 10
68.98, 16
68.99, 13
69, 9
69.01, 6
69.02, 9
69.03, 12
69.04, 8
69.05, 7
69.06, 12
69.07, 10
69.08, 7
69.09, 11
69.1, 10
69.11, 11
69.12, 9
69.13, 7
69.14, 17
69.15, 11
69.16, 12
69.17, 14
69.18, 12
69.19, 5
69.2, 7
69.21, 10
69.22, 10
69.23, 9
69.24, 18
69.25, 8
69.26, 9
69.27, 10
69.28, 7
69.29, 6
69.3, 5
69.31, 7
69.32, 8
69.33, 14
69.34, 9
69.35, 11
69.36, 10
69.37, 5
69.38, 15
69.39, 9
69.4, 10
69.41, 14
69.42, 7
69.43, 11
69.44, 10
69.45, 9
69.46, 10
69.47, 13
69.48, 8
69.49, 10
69.5, 8
69.51, 8
69.52, 7
69.53, 7
69.54, 18
69.55, 12
69.56, 11
69.57, 7
69.58, 11
69.59, 11
69.6, 8
69.61, 10
69.62, 9
69.63, 9
69.64, 14
69.65, 13
69.66, 10
69.67, 6
69.68, 8
69.69, 14
69.7, 10
69.71, 9
69.72, 14
69.73, 9
69.74, 5
69.75, 5
69.76, 8
69.77, 8
69.78, 10
69.79, 10
69.8, 7
69.81, 11
69.82, 10
69.83, 12
69.84, 6
69.85, 9
69.86, 5
69.87, 8
69.88, 10
69.89, 6
69.9, 11
69.91, 7
69.92, 8
69.93, 10
69.94, 10
69.95, 12
69.96, 8
69.97, 6
69.98, 12
69.99, 5
70, 9
70.01, 7
70.02, 8
70.03, 9
70.04, 9
70.05, 13
70.06, 9
70.07, 10
70.08, 6
70.09, 7
70.1, 5
70.11, 13
70.12, 8
70.13, 9
70.14, 6
70.15, 11
70.16, 6
70.17, 5
70.18, 8
70.19, 15
70.2, 11
70.21, 8
70.22, 10
70.23, 11
70.24, 11
70.25, 10
70.26, 10
70.27, 6
70.28, 8
70.29, 16
70.3, 5
70.31, 8
70.32, 12
70.33, 9
70.34, 7
70.35, 7
70.36, 9
70.37, 7
70.38, 5
70.39, 10
70.4, 4
70.41, 9
70.42, 8
70.43, 9
70.44, 11
70.45, 8
70.46, 10
70.47, 13
70.48, 9
70.49, 7
70.5, 6
70.51, 7
70.52, 7
70.53, 10
70.54, 13
70.55, 8
70.56, 12
70.57, 7
70.58, 9
70.59, 10
70.6, 4
70.61, 12
70.62, 13
70.63, 10
70.64, 9
70.65, 10
70.66, 7
70.67, 7
70.68, 9
70.69, 6
70.7, 17
70.71, 10
70.72, 11
70.73, 8
70.74, 3
70.75, 9
70.76, 16
70.77, 7
70.78, 8
70.79, 10
70.8, 8
70.81, 7
70.82, 8
70.83, 8
70.84, 8
70.85, 11
70.86, 12
70.87, 6
70.88, 13
70.89, 12
70.9, 5
70.91, 11
70.92, 10
70.93, 14
70.94, 13
70.95, 11
70.96, 16
70.97, 10
70.98, 11
70.99, 10
71, 8
71.01, 7
71.02, 12
71.03, 11
71.04, 11
71.05, 9
71.06, 5
71.07, 9
71.08, 4
71.09, 8
71.1, 10
71.11, 7
71.12, 14
71.13, 5
71.14, 12
71.15, 14
71.16, 7
71.17, 11
71.18, 8
71.19, 13
71.2, 8
71.21, 7
71.22, 14
71.23, 14
71.24, 15
71.25, 10
71.26, 7
71.27, 3
71.28, 7
71.29, 9
71.3, 3
71.31, 6
71.32, 7
71.33, 12
71.34, 4
71.35, 9
71.36, 7
71.37, 15
71.38, 7
71.39, 8
71.4, 7
71.41, 12
71.42, 9
71.43, 10
71.44, 10
71.45, 8
71.46, 17
71.47, 6
71.48, 6
71.49, 10
71.5, 11
71.51, 18
71.52, 11
71.53, 12
71.54, 6
71.55, 12
71.56, 9
71.57, 13
71.58, 10
71.59, 17
71.6, 11
71.61, 7
71.62, 12
71.63, 6
71.64, 6
71.65, 8
71.66, 8
71.67, 15
71.68, 11
71.69, 10
71.7, 6
71.71, 8
71.72, 16
71.73, 11
71.74, 10
71.75, 13
71.76, 8
71.77, 6
71.78, 18
71.79, 10
71.8, 7
71.81, 12
71.82, 15
71.83, 15
71.84, 8
71.85, 10
71.86, 9
71.87, 9
71.88, 14
71.89, 7
71.9, 7
71.91, 7
71.92, 16
71.93, 9
71.94, 13
71.95, 17
71.96, 8
71.97, 11
71.98, 11
71.99, 11
72, 13
72.01, 12
72.02, 13
72.03, 10
72.04, 12
72.05, 7
72.06, 14
72.07, 16
72.08, 9
72.09, 7
72.1, 11
72.11, 16
72.12, 8
72.13, 10
72.14, 14
72.15, 9
72.16, 13
72.17, 14
72.18, 15
72.19, 13
72.2, 23
72.21, 14
72.22, 15
72.23, 16
72.24, 13
72.25, 9
72.26, 5
72.27, 10
72.28, 15
72.29, 12
72.3, 20
72.31, 25
72.32, 21
72.33, 18
72.34, 21
72.35, 17
72.36, 16
72.37, 15
72.38, 16
72.39, 23
72.4, 20
72.41, 23
72.42, 34
72.43, 20
72.44, 24
72.45, 33
72.46, 20
72.47, 19
72.48, 21
72.49, 22
72.5, 23
72.51, 19
72.52, 32
72.53, 19
72.54, 21
72.55, 24
72.56, 27
72.57, 28
72.58, 23
72.59, 30
72.6, 23
72.61, 18
72.62, 20
72.63, 24
72.64, 27
72.65, 17
72.66, 21
72.67, 21
72.68, 15
72.69, 25
72.7, 25
72.71, 24
72.72, 26
72.73, 18
72.74, 20
72.75, 22
72.76, 21
72.77, 18
72.78, 24
72.79, 16
72.8, 22
72.81, 19
72.82, 24
72.83, 19
72.84, 14
72.85, 19
72.86, 19
72.87, 17
72.88, 11
72.89, 20
72.9, 15
72.91, 10
72.92, 12
72.93, 11
72.94, 22
72.95, 18
72.96, 12
72.97, 12
72.98, 17
72.99, 12
73, 11
73.01, 13
73.02, 15
73.03, 14
73.04, 15
73.05, 18
73.06, 15
73.07, 12
73.08, 9
73.09, 8
73.1, 21
73.11, 15
73.12, 19
73.13, 11
73.14, 20
73.15, 13
73.16, 14
73.17, 8
73.18, 12
73.19, 15
73.2, 12
73.21, 11
73.22, 13
73.23, 21
73.24, 24
73.25, 21
73.26, 10
73.27, 15
73.28, 14
73.29, 15
73.3, 11
73.31, 16
73.32, 17
73.33, 23
73.34, 18
73.35, 17
73.36, 15
73.37, 15
73.38, 21
73.39, 18
73.4, 18
73.41, 19
73.42, 24
73.43, 19
73.44, 24
73.45, 20
73.46, 12
73.47, 15
73.48, 13
73.49, 13
73.5, 16
73.51, 18
73.52, 13
73.53, 13
73.54, 19
73.55, 15
73.56, 12
73.57, 15
73.58, 12
73.59, 19
73.6, 16
73.61, 14
73.62, 14
73.63, 17
73.64, 19
73.65, 15
73.66, 17
73.67, 11
73.68, 13
73.69, 19
73.7, 12
73.71, 12
73.72, 15
73.73, 11
73.74, 13
73.75, 14
73.76, 10
73.77, 14
73.78, 14
73.79, 12
73.8, 19
73.81, 23
73.82, 13
73.83, 21
73.84, 14
73.85, 18
73.86, 17
73.87, 21
73.88, 10
73.89, 22
73.9, 13
73.91, 23
73.92, 18
73.93, 20
73.94, 22
73.95, 20
73.96, 22
73.97, 24
73.98, 25
73.99, 20
74, 20
74.01, 34
74.02, 22
74.03, 25
74.04, 23
74.05, 19
74.06, 24
74.07, 24
74.08, 21
74.09, 20
74.1, 34
74.11, 44
74.12, 19
74.13, 36
74.14, 30
74.15, 25
74.16, 28
74.17, 31
74.18, 31
74.19, 28
74.2, 42
74.21, 34
74.22, 40
74.23, 42
74.24, 24
74.25, 36
74.26, 48
74.27, 37
74.28, 27
74.29, 46
74.3, 37
74.31, 43
74.32, 28
74.33, 42
74.34, 36
74.35, 40
74.36, 36
74.37, 30
74.38, 41
74.39, 37
74.4, 28
74.41, 42
74.42, 34
74.43, 35
74.44, 29
74.45, 28
74.46, 30
74.47, 32
74.48, 40
74.49, 36
74.5, 30
74.51, 31
74.52, 33
74.53, 31
74.54, 34
74.55, 17
74.56, 34
74.57, 23
74.58, 26
74.59, 22
74.6, 22
74.61, 28
74.62, 27
74.63, 24
74.64, 22
74.65, 21
74.66, 29
74.67, 19
74.68, 24
74.69, 19
74.7, 24
74.71, 26
74.72, 16
74.73, 24
74.74, 27
74.75, 21
74.76, 21
74.77, 24
74.78, 20
74.79, 22
74.8, 23
74.81, 13
74.82, 27
74.83, 29
74.84, 12
74.85, 23
74.86, 15
74.87, 19
74.88, 30
74.89, 29
74.9, 15
74.91, 24
74.92, 22
74.93, 27
74.94, 25
74.95, 30
74.96, 22
74.97, 21
74.98, 23
74.99, 17
75, 23
75.01, 23
75.02, 23
75.03, 22
75.04, 28
75.05, 21
75.06, 18
75.07, 14
75.08, 26
75.09, 21
75.1, 20
75.11, 20
75.12, 17
75.13, 19
75.14, 20
75.15, 11
75.16, 22
75.17, 18
75.18, 17
75.19, 15
75.2, 17
75.21, 11
75.22, 10
75.23, 17
75.24, 12
75.25, 28
75.26, 16
75.27, 22
75.28, 19
75.29, 26
75.3, 19
75.31, 16
75.32, 17
75.33, 18
75.34, 21
75.35, 14
75.36, 9
75.37, 27
75.38, 22
75.39, 22
75.4, 17
75.41, 16
75.42, 15
75.43, 15
75.44, 15
75.45, 21
75.46, 19
75.47, 23
75.48, 29
75.49, 23
75.5, 14
75.51, 17
75.52, 14
75.53, 20
75.54, 23
75.55, 23
75.56, 22
75.57, 18
75.58, 33
75.59, 16
75.6, 24
75.61, 26
75.62, 23
75.63, 24
75.64, 21
75.65, 20
75.66, 27
75.67, 23
75.68, 27
75.69, 15
75.7, 26
75.71, 28
75.72, 26
75.73, 23
75.74, 23
75.75, 29
75.76, 19
75.77, 24
75.78, 23
75.79, 28
75.8, 14
75.81, 25
75.82, 24
75.83, 20
75.84, 27
75.85, 24
75.86, 17
75.87, 26
75.88, 18
75.89, 18
75.9, 22
75.91, 22
75.92, 21
75.93, 13
75.94, 22
75.95, 20
75.96, 18
75.97, 20
75.98, 12
75.99, 20
76, 18
76.01, 20
76.02, 21
76.03, 21
76.04, 20
76.05, 21
76.06, 16
76.07, 9
76.08, 23
76.09, 13
76.1, 23
76.11, 10
76.12, 14
76.13, 14
76.14, 10
76.15, 14
76.16, 17
76.17, 13
76.18, 22
76.19, 16
76.2, 17
76.21, 24
76.22, 19
76.23, 14
76.24, 19
76.25, 19
76.26, 16
76.27, 16
76.28, 11
76.29, 11
76.3, 21
76.31, 23
76.32, 23
76.33, 15
76.34, 18
76.35, 19
76.36, 16
76.37, 20
76.38, 16
76.39, 20
76.4, 13
76.41, 8
76.42, 19
76.43, 10
76.44, 16
76.45, 17
76.46, 26
76.47, 14
76.48, 20
76.49, 17
76.5, 23
76.51, 19
76.52, 20
76.53, 19
76.54, 21
76.55, 19
76.56, 13
76.57, 20
76.58, 19
76.59, 20
76.6, 17
76.61, 24
76.62, 17
76.63, 22
76.64, 23
76.65, 20
76.66, 12
76.67, 22
76.68, 15
76.69, 20
76.7, 24
76.71, 21
76.72, 16
76.73, 23
76.74, 18
76.75, 27
76.76, 19
76.77, 16
76.78, 22
76.79, 15
76.8, 18
76.81, 13
76.82, 19
76.83, 12
76.84, 12
76.85, 23
76.86, 15
76.87, 14
76.88, 14
76.89, 19
76.9, 21
76.91, 11
76.92, 13
76.93, 17
76.94, 12
76.95, 12
76.96, 14
76.97, 13
76.98, 22
76.99, 22
77, 16
77.01, 14
77.02, 16
77.03, 12
77.04, 7
77.05, 15
77.06, 11
77.07, 19
77.08, 11
77.09, 16
77.1, 10
77.11, 16
77.12, 9
77.13, 13
77.14, 10
77.15, 13
77.16, 9
77.17, 8
77.18, 13
77.19, 14
77.2, 19
77.21, 8
77.22, 5
77.23, 9
77.24, 17
77.25, 8
77.26, 17
77.27, 15
77.28, 17
77.29, 13
77.3, 9
77.31, 14
77.32, 11
77.33, 13
77.34, 10
77.35, 16
77.36, 16
77.37, 12
77.38, 17
77.39, 19
77.4, 14
77.41, 15
77.42, 20
77.43, 15
77.44, 15
77.45, 18
77.46, 16
77.47, 7
77.48, 22
77.49, 13
77.5, 14
77.51, 20
77.52, 17
77.53, 10
77.54, 17
77.55, 18
77.56, 14
77.57, 14
77.58, 10
77.59, 9
77.6, 14
77.61, 13
77.62, 12
77.63, 9
77.64, 10
77.65, 20
77.66, 7
77.67, 8
77.68, 16
77.69, 18
77.7, 13
77.71, 19
77.72, 13
77.73, 22
77.74, 8
77.75, 16
77.76, 17
77.77, 15
77.78, 11
77.79, 15
77.8, 11
77.81, 15
77.82, 10
77.83, 11
77.84, 25
77.85, 8
77.86, 21
77.87, 18
77.88, 20
77.89, 14
77.9, 12
77.91, 22
77.92, 30
77.93, 16
77.94, 14
77.95, 12
77.96, 14
77.97, 18
77.98, 11
77.99, 15
78, 12
78.01, 14
78.02, 18
78.03, 16
78.04, 7
78.05, 17
78.06, 13
78.07, 19
78.08, 19
78.09, 21
78.1, 15
78.11, 17
78.12, 11
78.13, 19
78.14, 16
78.15, 18
78.16, 17
78.17, 18
78.18, 26
78.19, 9
78.2, 12
78.21, 14
78.22, 13
78.23, 13
78.24, 12
78.25, 14
78.26, 15
78.27, 13
78.28, 17
78.29, 16
78.3, 15
78.31, 15
78.32, 11
78.33, 21
78.34, 18
78.35, 19
78.36, 22
78.37, 20
78.38, 11
78.39, 19
78.4, 19
78.41, 20
78.42, 16
78.43, 17
78.44, 19
78.45, 15
78.46, 16
78.47, 17
78.48, 14
78.49, 17
78.5, 17
78.51, 11
78.52, 11
78.53, 24
78.54, 10
78.55, 14
78.56, 15
78.57, 18
78.58, 16
78.59, 15
78.6, 20
78.61, 18
78.62, 21
78.63, 16
78.64, 12
78.65, 16
78.66, 12
78.67, 19
78.68, 18
78.69, 16
78.7, 11
78.71, 14
78.72, 11
78.73, 15
78.74, 11
78.75, 5
78.76, 9
78.77, 18
78.78, 12
78.79, 2
78.8, 6
78.81, 21
78.82, 11
78.83, 8
78.84, 11
78.85, 14
78.86, 17
78.87, 11
78.88, 15
78.89, 16
78.9, 7
78.91, 16
78.92, 7
78.93, 9
78.94, 9
78.95, 13
78.96, 16
78.97, 4
78.98, 9
78.99, 5
79, 15
79.01, 18
79.02, 16
79.03, 13
79.04, 9
79.05, 12
79.06, 11
79.07, 11
79.08, 9
79.09, 10
79.1, 6
79.11, 13
79.12, 15
79.13, 11
79.14, 11
79.15, 14
79.16, 11
79.17, 10
79.18, 12
79.19, 11
79.2, 12
79.21, 11
79.22, 10
79.23, 11
79.24, 8
79.25, 14
79.26, 5
79.27, 10
79.28, 8
79.29, 9
79.3, 14
79.31, 14
79.32, 10
79.33, 7
79.34, 12
79.35, 5
79.36, 13
79.37, 10
79.38, 12
79.39, 15
79.4, 8
79.41, 10
79.42, 7
79.43, 10
79.44, 8
79.45, 10
79.46, 6
79.47, 10
79.48, 14
79.49, 10
79.5, 4
79.51, 7
79.52, 11
79.53, 11
79.54, 11
79.55, 9
79.56, 8
79.57, 12
79.58, 12
79.59, 10
79.6, 3
79.61, 8
79.62, 8
79.63, 9
79.64, 16
79.65, 9
79.66, 10
79.67, 6
79.68, 13
79.69, 11
79.7, 11
79.71, 7
79.72, 11
79.73, 10
79.74, 8
79.75, 8
79.76, 10
79.77, 14
79.78, 8
79.79, 7
79.8, 6
79.81, 11
79.82, 9
79.83, 7
79.84, 13
79.85, 10
79.86, 17
79.87, 8
79.88, 16
79.89, 12
79.9, 8
79.91, 13
79.92, 8
79.93, 10
79.94, 8
79.95, 11
79.96, 14
79.97, 6
79.98, 14
79.99, 3
80, 13
80.01, 13
80.02, 6
80.03, 13
80.04, 10
80.05, 11
80.06, 12
80.07, 11
80.08, 12
80.09, 18
80.1, 10
80.11, 12
80.12, 11
80.13, 8
80.14, 9
80.15, 4
80.16, 6
80.17, 10
80.18, 12
80.19, 11
80.2, 8
80.21, 8
80.22, 21
80.23, 5
80.24, 14
80.25, 11
80.26, 18
80.27, 11
80.28, 11
80.29, 6
80.3, 13
80.31, 10
80.32, 15
80.33, 16
80.34, 9
80.35, 14
80.36, 12
80.37, 10
80.38, 12
80.39, 14
80.4, 13
80.41, 13
80.42, 14
80.43, 21
80.44, 12
80.45, 13
80.46, 10
80.47, 21
80.48, 15
80.49, 16
80.5, 12
80.51, 13
80.52, 13
80.53, 16
80.54, 21
80.55, 19
80.56, 17
80.57, 11
80.58, 11
80.59, 11
80.6, 17
80.61, 15
80.62, 15
80.63, 20
80.64, 18
80.65, 14
80.66, 12
80.67, 18
80.68, 16
80.69, 10
80.7, 17
80.71, 17
80.72, 15
80.73, 15
80.74, 11
80.75, 22
80.76, 15
80.77, 21
80.78, 17
80.79, 17
80.8, 17
80.81, 17
80.82, 14
80.83, 14
80.84, 13
80.85, 13
80.86, 10
80.87, 17
80.88, 12
80.89, 19
80.9, 12
80.91, 22
80.92, 8
80.93, 25
80.94, 9
80.95, 12
80.96, 17
80.97, 7
80.98, 11
80.99, 13
81, 14
81.01, 8
81.02, 16
81.03, 15
81.04, 15
81.05, 12
81.06, 15
81.07, 12
81.08, 7
81.09, 15
81.1, 16
81.11, 11
81.12, 12
81.13, 14
81.14, 17
81.15, 10
81.16, 10
81.17, 10
81.18, 17
81.19, 10
81.2, 12
81.21, 12
81.22, 11
81.23, 15
81.24, 11
81.25, 15
81.26, 5
81.27, 5
81.28, 11
81.29, 10
81.3, 10
81.31, 13
81.32, 13
81.33, 13
81.34, 16
81.35, 7
81.36, 14
81.37, 17
81.38, 6
81.39, 10
81.4, 12
81.41, 7
81.42, 15
81.43, 12
81.44, 5
81.45, 9
81.46, 15
81.47, 12
81.48, 8
81.49, 11
81.5, 10
81.51, 11
81.52, 12
81.53, 7
81.54, 7
81.55, 6
81.56, 11
81.57, 15
81.58, 8
81.59, 13
81.6, 11
81.61, 15
81.62, 13
81.63, 8
81.64, 15
81.65, 10
81.66, 7
81.67, 14
81.68, 10
81.69, 14
81.7, 8
81.71, 9
81.72, 11
81.73, 12
81.74, 15
81.75, 12
81.76, 11
81.77, 9
81.78, 9
81.79, 11
81.8, 7
81.81, 13
81.82, 13
81.83, 10
81.84, 16
81.85, 8
81.86, 9
81.87, 10
81.88, 12
81.89, 12
81.9, 10
81.91, 8
81.92, 9
81.93, 7
81.94, 14
81.95, 12
81.96, 13
81.97, 7
81.98, 8
81.99, 9
82, 17
82.01, 16
82.02, 10
82.03, 16
82.04, 11
82.05, 10
82.06, 6
82.07, 20
82.08, 10
82.09, 11
82.1, 16
82.11, 18
82.12, 8
82.13, 8
82.14, 12
82.15, 10
82.16, 12
82.17, 9
82.18, 10
82.19, 8
82.2, 12
82.21, 11
82.22, 16
82.23, 17
82.24, 16
82.25, 11
82.26, 18
82.27, 8
82.28, 14
82.29, 21
82.3, 7
82.31, 12
82.32, 12
82.33, 13
82.34, 13
82.35, 15
82.36, 8
82.37, 14
82.38, 26
82.39, 7
82.4, 16
82.41, 12
82.42, 14
82.43, 20
82.44, 14
82.45, 12
82.46, 9
82.47, 19
82.48, 21
82.49, 13
82.5, 26
82.51, 25
82.52, 12
82.53, 12
82.54, 14
82.55, 17
82.56, 15
82.57, 16
82.58, 16
82.59, 19
82.6, 16
82.61, 12
82.62, 20
82.63, 17
82.64, 18
82.65, 14
82.66, 18
82.67, 8
82.68, 14
82.69, 19
82.7, 11
82.71, 22
82.72, 15
82.73, 17
82.74, 15
82.75, 23
82.76, 11
82.77, 13
82.78, 13
82.79, 12
82.8, 23
82.81, 25
82.82, 24
82.83, 13
82.84, 19
82.85, 17
82.86, 22
82.87, 22
82.88, 20
82.89, 16
82.9, 16
82.91, 13
82.92, 17
82.93, 13
82.94, 16
82.95, 18
82.96, 20
82.97, 12
82.98, 8
82.99, 19
83, 7
83.01, 14
83.02, 14
83.03, 16
83.04, 15
83.05, 17
83.06, 9
83.07, 13
83.08, 12
83.09, 15
83.1, 16
83.11, 16
83.12, 7
83.13, 12
83.14, 13
83.15, 15
83.16, 16
83.17, 13
83.18, 11
83.19, 12
83.2, 20
83.21, 13
83.22, 7
83.23, 13
83.24, 12
83.25, 13
83.26, 23
83.27, 20
83.28, 15
83.29, 8
83.3, 5
83.31, 14
83.32, 16
83.33, 17
83.34, 17
83.35, 14
83.36, 17
83.37, 10
83.38, 18
83.39, 20
83.4, 7
83.41, 19
83.42, 14
83.43, 10
83.44, 10
83.45, 20
83.46, 14
83.47, 16
83.48, 9
83.49, 19
83.5, 10
83.51, 23
83.52, 18
83.53, 11
83.54, 16
83.55, 16
83.56, 17
83.57, 15
83.58, 12
83.59, 21
83.6, 18
83.61, 30
83.62, 16
83.63, 16
83.64, 18
83.65, 10
83.66, 15
83.67, 16
83.68, 14
83.69, 17
83.7, 26
83.71, 20
83.72, 21
83.73, 12
83.74, 19
83.75, 19
83.76, 16
83.77, 16
83.78, 15
83.79, 17
83.8, 21
83.81, 21
83.82, 18
83.83, 15
83.84, 22
83.85, 18
83.86, 15
83.87, 12
83.88, 16
83.89, 12
83.9, 13
83.91, 17
83.92, 11
83.93, 15
83.94, 21
83.95, 16
83.96, 17
83.97, 13
83.98, 25
83.99, 13
84, 12
84.01, 20
84.02, 17
84.03, 17
84.04, 11
84.05, 16
84.06, 26
84.07, 24
84.08, 18
84.09, 17
84.1, 16
84.11, 17
84.12, 7
84.13, 11
84.14, 16
84.15, 9
84.16, 14
84.17, 13
84.18, 12
84.19, 11
84.2, 4
84.21, 11
84.22, 7
84.23, 11
84.24, 9
84.25, 11
84.26, 12
84.27, 9
84.28, 13
84.29, 14
84.3, 13
84.31, 8
84.32, 5
84.33, 3
84.34, 13
84.35, 11
84.36, 19
84.37, 14
84.38, 12
84.39, 15
84.4, 12
84.41, 13
84.42, 8
84.43, 12
84.44, 10
84.45, 16
84.46, 7
84.47, 10
84.48, 11
84.49, 11
84.5, 15
84.51, 13
84.52, 9
84.53, 16
84.54, 12
84.55, 15
84.56, 13
84.57, 14
84.58, 14
84.59, 11
84.6, 12
84.61, 13
84.62, 9
84.63, 7
84.64, 10
84.65, 7
84.66, 12
84.67, 20
84.68, 13
84.69, 13
84.7, 13
84.71, 10
84.72, 14
84.73, 13
84.74, 7
84.75, 8
84.76, 11
84.77, 15
84.78, 13
84.79, 7
84.8, 7
84.81, 9
84.82, 14
84.83, 11
84.84, 8
84.85, 15
84.86, 16
84.87, 9
84.88, 12
84.89, 18
84.9, 12
84.91, 12
84.92, 9
84.93, 14
84.94, 12
84.95, 16
84.96, 15
84.97, 10
84.98, 18
84.99, 17
85, 9
85.01, 14
85.02, 11
85.03, 11
85.04, 22
85.05, 13
85.06, 15
85.07, 25
85.08, 12
85.09, 15
85.1, 14
85.11, 10
85.12, 6
85.13, 17
85.14, 17
85.15, 12
85.16, 11
85.17, 10
85.18, 11
85.19, 20
85.2, 12
85.21, 16
85.22, 15
85.23, 16
85.24, 13
85.25, 10
85.26, 16
85.27, 10
85.28, 11
85.29, 16
85.3, 12
85.31, 14
85.32, 15
85.33, 16
85.34, 8
85.35, 14
85.36, 20
85.37, 12
85.38, 11
85.39, 12
85.4, 17
85.41, 13
85.42, 12
85.43, 11
85.44, 9
85.45, 11
85.46, 12
85.47, 10
85.48, 10
85.49, 9
85.5, 8
85.51, 9
85.52, 19
85.53, 9
85.54, 15
85.55, 15
85.56, 13
85.57, 16
85.58, 6
85.59, 11
85.6, 10
85.61, 10
85.62, 8
85.63, 14
85.64, 9
85.65, 13
85.66, 9
85.67, 12
85.68, 14
85.69, 11
85.7, 10
85.71, 11
85.72, 12
85.73, 16
85.74, 15
85.75, 11
85.76, 8
85.77, 12
85.78, 10
85.79, 7
85.8, 18
85.81, 7
85.82, 16
85.83, 14
85.84, 15
85.85, 13
85.86, 15
85.87, 10
85.88, 16
85.89, 15
85.9, 13
85.91, 17
85.92, 17
85.93, 13
85.94, 18
85.95, 10
85.96, 14
85.97, 12
85.98, 12
85.99, 13
86, 10
86.01, 10
86.02, 11
86.03, 14
86.04, 11
86.05, 22
86.06, 17
86.07, 22
86.08, 12
86.09, 11
86.1, 12
86.11, 7
86.12, 12
86.13, 10
86.14, 22
86.15, 11
86.16, 16
86.17, 17
86.18, 11
86.19, 10
86.2, 8
86.21, 11
86.22, 7
86.23, 10
86.24, 17
86.25, 12
86.26, 4
86.27, 17
86.28, 7
86.29, 8
86.3, 18
86.31, 9
86.32, 19
86.33, 13
86.34, 14
86.35, 11
86.36, 14
86.37, 6
86.38, 10
86.39, 22
86.4, 13
86.41, 9
86.42, 13
86.43, 13
86.44, 11
86.45, 15
86.46, 17
86.47, 10
86.48, 14
86.49, 18
86.5, 9
86.51, 15
86.52, 11
86.53, 11
86.54, 7
86.55, 12
86.56, 12
86.57, 7
86.58, 8
86.59, 12
86.6, 12
86.61, 13
86.62, 12
86.63, 9
86.64, 13
86.65, 7
86.66, 9
86.67, 12
86.68, 12
86.69, 10
86.7, 9
86.71, 6
86.72, 13
86.73, 7
86.74, 9
86.75, 13
86.76, 7
86.77, 17
86.78, 12
86.79, 3
86.8, 8
86.81, 14
86.82, 13
86.83, 10
86.84, 11
86.85, 9
86.86, 4
86.87, 15
86.88, 12
86.89, 12
86.9, 10
86.91, 9
86.92, 13
86.93, 13
86.94, 7
86.95, 6
86.96, 10
86.97, 10
86.98, 8
86.99, 11
87, 17
87.01, 10
87.02, 13
87.03, 8
87.04, 6
87.05, 12
87.06, 8
87.07, 12
87.08, 10
87.09, 8
87.1, 9
87.11, 15
87.12, 11
87.13, 12
87.14, 8
87.15, 12
87.16, 9
87.17, 9
87.18, 6
87.19, 9
87.2, 10
87.21, 10
87.22, 9
87.23, 11
87.24, 5
87.25, 6
87.26, 8
87.27, 11
87.28, 6
87.29, 9
87.3, 16
87.31, 16
87.32, 11
87.33, 11
87.34, 8
87.35, 19
87.36, 13
87.37, 7
87.38, 9
87.39, 10
87.4, 9
87.41, 5
87.42, 10
87.43, 11
87.44, 8
87.45, 13
87.46, 13
87.47, 11
87.48, 9
87.49, 15
87.5, 7
87.51, 14
87.52, 16
87.53, 13
87.54, 9
87.55, 12
87.56, 10
87.57, 13
87.58, 12
87.59, 14
87.6, 12
87.61, 13
87.62, 11
87.63, 15
87.64, 16
87.65, 13
87.66, 21
87.67, 8
87.68, 10
87.69, 14
87.7, 5
87.71, 6
87.72, 13
87.73, 9
87.74, 14
87.75, 16
87.76, 8
87.77, 3
87.78, 12
87.79, 14
87.8, 10
87.81, 14
87.82, 9
87.83, 15
87.84, 12
87.85, 10
87.86, 6
87.87, 13
87.88, 17
87.89, 20
87.9, 13
87.91, 12
87.92, 12
87.93, 10
87.94, 12
87.95, 14
87.96, 8
87.97, 5
87.98, 13
87.99, 5
88, 11
88.01, 15
88.02, 14
88.03, 9
88.04, 4
88.05, 15
88.06, 11
88.07, 11
88.08, 9
88.09, 7
88.1, 8
88.11, 14
88.12, 10
88.13, 10
88.14, 13
88.15, 4
88.16, 11
88.17, 11
88.18, 10
88.19, 13
88.2, 11
88.21, 10
88.22, 7
88.23, 14
88.24, 13
88.25, 8
88.26, 8
88.27, 11
88.28, 14
88.29, 8
88.3, 19
88.31, 11
88.32, 16
88.33, 12
88.34, 9
88.35, 13
88.36, 13
88.37, 14
88.38, 14
88.39, 9
88.4, 5
88.41, 8
88.42, 6
88.43, 13
88.44, 13
88.45, 11
88.46, 11
88.47, 7
88.48, 11
88.49, 12
88.5, 11
88.51, 18
88.52, 13
88.53, 3
88.54, 8
88.55, 19
88.56, 15
88.57, 9
88.58, 8
88.59, 14
88.6, 5
88.61, 8
88.62, 12
88.63, 5
88.64, 11
88.65, 4
88.66, 12
88.67, 11
88.68, 13
88.69, 13
88.7, 12
88.71, 15
88.72, 13
88.73, 12
88.74, 16
88.75, 11
88.76, 16
88.77, 7
88.78, 9
88.79, 11
88.8, 15
88.81, 9
88.82, 12
88.83, 10
88.84, 8
88.85, 16
88.86, 5
88.87, 9
88.88, 15
88.89, 14
88.9, 14
88.91, 8
88.92, 10
88.93, 9
88.94, 8
88.95, 10
88.96, 9
88.97, 13
88.98, 9
88.99, 9
89, 11
89.01, 7
89.02, 16
89.03, 12
89.04, 14
89.05, 7
89.06, 12
89.07, 11
89.08, 16
89.09, 11
89.1, 9
89.11, 11
89.12, 12
89.13, 14
89.14, 12
89.15, 14
89.16, 15
89.17, 13
89.18, 12
89.19, 14
89.2, 11
89.21, 16
89.22, 17
89.23, 10
89.24, 4
89.25, 8
89.26, 5
89.27, 12
89.28, 14
89.29, 9
89.3, 9
89.31, 14
89.32, 14
89.33, 11
89.34, 11
89.35, 13
89.36, 7
89.37, 18
89.38, 9
89.39, 14
89.4, 12
89.41, 12
89.42, 10
89.43, 14
89.44, 19
89.45, 7
89.46, 16
89.47, 12
89.48, 9
89.49, 12
89.5, 10
89.51, 7
89.52, 13
89.53, 12
89.54, 11
89.55, 10
89.56, 7
89.57, 13
89.58, 9
89.59, 9
89.6, 13
89.61, 11
89.62, 11
89.63, 12
89.64, 13
89.65, 12
89.66, 8
89.67, 7
89.68, 17
89.69, 6
89.7, 8
89.71, 11
89.72, 9
89.73, 11
89.74, 4
89.75, 16
89.76, 15
89.77, 14
89.78, 8
89.79, 10
89.8, 12
89.81, 7
89.82, 13
89.83, 9
89.84, 9
89.85, 10
89.86, 13
89.87, 10
89.88, 8
89.89, 13
89.9, 11
89.91, 12
89.92, 4
89.93, 11
89.94, 16
89.95, 10
89.96, 10
89.97, 15
89.98, 8
89.99, 6
90, 8
##END=



